1.169332!1.049723!0.962462!0.931679!0.651689!0.586200!0.236572!0.125625!0.045422!-0.076107!-0.288090!-0.319914!-0.302487!-0.326851!-0.304035!-0.295043!-0.390487!-0.302766!-0.227518!-0.220501!-0.242824!-0.164963!-0.187797!-0.168866!-0.111442!-0.027519!-0.001151!0.000918!-0.141058!0.007294!-0.044270!-0.042741!0.025309!-0.144491!-0.011955!-0.050251!-0.073361!0.056752!0.052075!-0.031933!0.004169!-0.124392!-0.020629!-0.006964!-0.045562!0.072207!-0.079046!0.022583!-0.074514!0.065701!0.050700!0.042249!0.120708!0.007295!0.017925!0.161813!0.207732!0.082436!0.170522!0.214411!0.231371!0.142927!0.111446!0.234924!0.153454!0.302801!0.351133!0.349967!0.220423!0.381867!0.237848!0.231658!0.369271!0.271160!0.299479!0.396422!0.337147!0.379996!0.392097!0.381540!0.396728!0.409431!0.372567!0.466361!0.364398!0.461827!0.369658!0.325874!0.417298!0.282995!0.285494!0.425451!0.347904!0.357577!0.224033!0.265499!0.251964!0.190130!0.251110!0.224556!0.169483!0.147952!0.144546!0.097028!0.117399!0.088213!0.118121!0.024229!0.045401!0.046889!0.100384!-0.007875!-0.012109!0.030231!-0.055616!0.021280!0.106812!0.086402!0.082461!-0.064020!0.011341!-0.116849!0.031347!-0.128843!0.017072!-0.073077!-0.122143!0.035380!0.005120!-0.127045!0.037787!-0.088098!-0.036052!-0.043953!0.037018!0.036255!-0.069846!-0.086956!-0.156146!-0.018835!-0.112303!-0.081233!0.002752!-0.048745!-0.046573!-0.100558!-0.102986!-0.106033!-0.017782!-0.110902!-0.046245!-0.092266!-0.101042!-0.102786!-0.054546!-0.040631!-0.128160!-0.142784!0.010894!-0.110644!-0.006356!-0.012355!-0.115800!0.021534!-0.051866!-0.004509!-0.086152!-0.099442!0.036441!-0.019283!-0.096068!-0.021738!-0.114091!-0.129432!-0.098191!-0.092701!-0.009700!-0.093135!-0.002501!-0.003337!-0.074145!-0.020718!-0.002654!0.000500!-0.031240!-0.124932!0.022155!0.027557!0.035678!-0.051831!-0.056966!-0.060862!0.014259!-0.048702!-0.118483!-0.032587!-0.067208!-0.054977!-0.110899!-0.012397!-0.043214!0.081339!-0.011286!0.061332!0.048555!-0.048047!-0.057963!-0.053589!0.044080!0.091668!0.027465!0.072967!0.077624!0.022981!-0.032897!-0.002202!0.038250!-0.054219!0.012184!0.115083!0.063513!0.027698!0.044884!0.164160!0.132607!0.107304!0.065404!0.257555!0.074517!0.138919!0.237574!0.242105!0.215883!0.270210!0.163463!0.254755!0.239502!0.339832!0.355970!0.372001!0.246926!0.366580!0.201397!0.255656!0.304720!0.190565!0.162097!0.158125!0.142891!0.188751!0.292066!0.194007!0.121799!0.184338!0.160071!0.205353!0.050411!0.006521!0.125144!0.005574!0.097879!-0.031661!-0.047156!0.109432!0.087634!-0.046890!-0.027587!-0.054721!0.097829!-0.074325!-0.033847!0.032831!-0.004129!0.040866!-0.078298!-0.019758!-0.051121!0.036446!-0.109043!-0.150354!-0.095060!-0.129828!-0.185804!-0.178448!-0.164731!-0.099012!-0.211958!-0.142973!-0.107817!0.118449!0.249083!0.276740!0.470757!0.641633!0.771364!1.010604!1.093536!1.153965!1.242086!1.012199!1.038547!0.922865!0.733079!0.622751!0.438922!0.233393!-0.040018!-0.082552!-0.244787!-0.252305!-0.347079!-0.189188!-0.242599!-0.142536!-0.123391!-0.168880!-0.222299!-0.058525!-0.152820!-0.037126!0.000893!0.057253!0.022133!-0.080795!-0.031295!0.088830!0.061594!0.035449!0.045291!0.074149!-0.025781!-0.028342!-0.013299!0.089105!0.020721!-0.037420!0.027917!0.132022!0.067266!0.118720!0.027230!-0.009029!-0.005631!0.097574!0.065265!0.162743!0.019769!0.145388!0.097511!0.041441!0.235327!0.100978!0.194012!0.248082!0.145820!0.286326!0.306551!0.193666!0.316782!0.239651!0.214115!0.356757!0.391245!0.395788!0.320962!0.297876!0.374707!0.341137!0.318904!0.348239!0.347426!0.380005!0.453955!0.495398!0.508423!0.392722!0.392641!0.405556!0.462579!0.435600!0.484750!0.559813!0.422713!0.487946!0.410768!0.423568!0.480691!0.350194!0.526710!0.498835!0.465218!0.311029!0.466757!0.378853!0.312101!0.241848!0.308368!0.409754!0.329576!0.289772!0.319128!0.213679!0.272744!0.193199!0.120503!0.275383!0.098709!0.214655!0.209150!0.110819!0.032952!0.021210!0.075573!0.142338!0.169614!0.075757!-0.015543!0.047723!0.026743!0.014381!0.007351!0.137339!0.053601!-0.018035!0.113210!-0.064773!0.036265!0.057289!0.106764!0.116112!-0.048692!-0.083921!-0.061000!-0.053707!0.027029!0.025601!0.063220!-0.066517!0.058274!0.017739!0.003928!0.030079!0.107982!-0.015420!-0.033108!-0.022282!0.090103!0.068172!-0.040123!0.044218!-0.078967!0.110255!-0.061245!-0.055171!0.060718!-0.017003!0.053515!-0.061215!0.030920!-0.055988!-0.029852!0.034507!-0.077249!0.015166!-0.019222!-0.025670!0.026847!0.023650!-0.063169!0.021364!0.088734!0.057280!-0.035353!0.118057!0.117532!0.108585!0.003876!0.056474!0.092629!0.012408!0.073032!0.096380!0.064247!0.042210!0.123211!0.110620!-0.042707!0.023174!-0.006373!-0.041229!-0.002105!0.008129!0.106116!-0.028628!-0.044450!-0.060237!0.096398!-0.011223!0.010143!0.100643!0.053029!0.097169!0.039468!0.031601!0.012532!-0.042121!0.087744!-0.044405!0.039581!0.135341!-0.036297!0.068509!0.124963!0.115464!0.023715!0.194659!0.182583!0.153255!0.045201!0.210818!0.230671!0.243449!0.189476!0.171950!0.124966!0.228264!0.222109!0.274504!0.205151!0.303390!0.381374!0.338241!0.385331!0.401889!0.411680!0.330313!0.264438!0.393200!0.236536!0.248522!0.403072!0.265025!0.388112!0.325064!0.310577!0.237509!0.321335!0.244377!0.178020!0.271833!0.243663!0.265962!0.253059!0.164267!0.033552!0.069752!0.069090!0.042212!0.131924!0.108875!0.157552!0.073921!0.047801!0.082478!-0.005895!-0.043781!-0.014844!0.112938!-0.040709!0.126735!0.010200!-0.039801!0.028412!-0.012466!0.048504!-0.111634!-0.142711!-0.002985!-0.170511!-0.024713!-0.107177!-0.181307!-0.084669!-0.090282!-0.019945!0.051866!0.170274!0.159342!0.457726!0.536131!0.655624!0.960535!1.097567!1.190307!1.193174!1.154756!1.124964!1.015683!0.905971!0.667818!0.461907!0.370585!0.080630!0.007497!-0.031150!-0.210072!-0.228868!-0.315248!-0.193659!-0.380491!-0.310079!-0.233171!-0.223825!-0.216394!-0.148434!-0.033881!-0.012296!-0.018554!-0.063629!-0.056787!-0.106586!0.060668!-0.093462!0.031382!0.011338!-0.015238!-0.002238!0.038288!-0.054569!-0.019162!0.061779!-0.066325!0.043665!0.070433!0.052389!0.061028!0.050390!0.084996!0.035175!-0.023068!0.018271!0.130892!0.100190!0.054250!0.168234!0.099276!0.035013!0.151860!0.180504!0.204204!0.137970!0.076382!0.098243!0.198323!0.222078!0.250436!0.208054!0.166768!0.215299!0.310084!0.224439!0.343026!0.288335!0.228658!0.368232!0.378118!0.407567!0.436201!0.423323!0.353014!0.438097!0.468805!0.381879!0.493756!0.351065!0.521606!0.542485!0.428610!0.398689!0.396895!0.411048!0.497587!0.462732!0.479052!0.503107!0.514123!0.500130!0.389445!0.378459!0.284495!0.318874!0.429083!0.367707!0.273313!0.288021!0.259644!0.270933!0.186990!0.229511!0.307481!0.126899!0.168318!0.089341!0.228513!0.210560!0.204029!0.154103!0.200636!0.115226!0.159102!-0.017747!-0.034644!-0.008646!0.056108!0.085713!0.097395!-0.068741!0.077773!0.087072!0.002253!-0.100504!0.061035!-0.089198!0.033567!-0.068137!-0.002731!0.038357!-0.110359!0.031816!0.028079!0.003079!-0.014719!0.036559!-0.072516!-0.063457!-0.109765!0.005321!0.019277!-0.010034!-0.129915!-0.137171!-0.137641!-0.117578!-0.068268!-0.093126!-0.027990!-0.008519!-0.090106!0.006916!-0.105746!-0.033399!0.015393!-0.119875!-0.054549!-0.012920!-0.108831!0.006802!-0.038785!0.041326!0.023486!-0.001236!0.022810!-0.088455!-0.008917!-0.060761!-0.005263!-0.040857!-0.070634!-0.140698!-0.052535!-0.049304!-0.048755!-0.050838!-0.067462!-0.020771!-0.007434!-0.018257!-0.052595!-0.131965!0.010936!-0.071860!-0.076418!-0.087770!-0.068660!-0.047473!-0.093911!-0.055395!-0.144561!-0.122431!-0.126320!-0.047779!0.037924!-0.078386!0.038876!-0.088459!-0.104193!-0.127171!-0.027786!-0.037226!-0.027014!0.011005!-0.142826!0.051366!-0.128233!0.035431!-0.095893!0.019737!-0.017412!-0.082569!-0.005828!0.044203!-0.053674!0.047746!0.061098!0.065906!0.065698!-0.060505!-0.093340!-0.069399!0.065338!-0.006702!-0.014739!-0.022077!0.039762!0.046936!0.115958!0.010627!0.040654!0.148522!0.245606!0.218959!0.149266!0.275826!0.293286!0.180719!0.173660!0.220082!0.283768!0.158616!0.297025!0.194202!0.163181!0.322688!0.290083!0.143332!0.254237!0.144255!0.105906!0.115886!0.218623!0.079438!0.200324!0.161289!0.168946!-0.015784!0.011667!0.032161!0.019065!-0.028332!0.087601!-0.080596!0.024897!-0.067710!-0.102842!-0.011881!0.055124!0.005080!-0.126252!-0.117486!-0.091363!-0.141848!-0.009317!-0.062653!-0.136194!-0.058361!-0.137871!-0.158048!-0.081258!-0.158458!-0.138975!-0.217721!-0.261478!-0.243038!-0.284196!-0.169749!-0.203234!-0.262374!-0.170545!-0.175902!-0.071278!-0.055675!0.169814!0.276053!0.430548!0.664352!0.689368!0.947215!0.930901!1.103192!1.075509!1.030112!1.008671!0.869624!0.724001!0.502645!0.298168!0.077907!-0.073940!-0.053437!-0.237192!-0.305891!-0.326655!-0.330774!-0.352082!-0.258965!-0.303674!-0.306964!-0.182893!-0.092338!-0.208507!-0.065023!-0.126322!-0.089959!0.002079!-0.093036!-0.041667!-0.086272!-0.128125!0.011096!0.017375!-0.056884!-0.111098!0.030870!-0.112142!-0.015379!-0.052770!0.024849!-0.135046!-0.045982!-0.048216!-0.117938!0.062976!0.075989!-0.063299!-0.029619!0.034851!-0.028332!0.104875!-0.035192!0.078900!-0.033065!0.018947!0.125309!0.007610!0.053522!0.156229!0.075673!0.156437!0.187838!0.198416!0.203370!0.153497!0.248397!0.268964!0.262930!0.178607!0.216426!0.231709!0.381651!0.351722!0.346590!0.384539!0.301217!0.403507!0.399409!0.382983!0.266069!0.464995!0.424451!0.337343!0.281910!0.365967!0.387067!0.375563!0.317507!0.423335!0.405963!0.388945!0.402626!0.295117!0.315350!0.402116!0.382430!0.210791!0.365498!0.277766!0.154179!0.212004!0.168901!0.182115!0.131453!0.109336!0.237580!0.199042!0.192378!0.186506!0.177337!-0.014938!0.140407!0.119324!-0.064910!-0.031102!0.095128!-0.009770!-0.022520!-0.107361!-0.030042!-0.062805!-0.076870!-0.152554!-0.006538!0.027575!-0.099048!-0.090296!-0.007728!-0.167991!0.001840!-0.088537!-0.130800!-0.100831!-0.059566!-0.165271!-0.092746!-0.083234!-0.177647!-0.018628!-0.168047!-0.035485!-0.164852!-0.120057!-0.031201!-0.095124!-0.204644!-0.157245!-0.162497!-0.169786!-0.077463!-0.101908!-0.171852!-0.014986!-0.206282!-0.081591!-0.191972!-0.134553!-0.145909!-0.192513!-0.155932!-0.030141!-0.073928!-0.109317!-0.116425!-0.098038!-0.141674!-0.170121!-0.184012!-0.089480!-0.133404!-0.190812!-0.139359!-0.086253!-0.104306!-0.048012!-0.039191!-0.024027!-0.089158!-0.194682!-0.010796!-0.022032!-0.171062!-0.067920!-0.189249!-0.026801!-0.086390!-0.137493!-0.178647!-0.188319!-0.004576!-0.179383!-0.066661!-0.123292!-0.085363!-0.026771!-0.037015!-0.051129!-0.081063!-0.117796!-0.018862!-0.044437!-0.179633!-0.184265!-0.021467!-0.073595!-0.057869!-0.071414!-0.136253!-0.050241!-0.005604!-0.106453!-0.117500!-0.146119!-0.040340!-0.064531!-0.004469!-0.058814!-0.118518!0.005785!0.038175!-0.022118!-0.006050!0.007754!0.024567!-0.067573!-0.031251!0.069774!0.021666!0.071601!0.013945!0.146346!0.128407!0.064936!0.051065!0.243135!0.188824!0.215987!0.203871!0.284600!0.146106!0.156879!0.213388!0.295114!0.152868!0.206628!0.210060!0.182854!0.173306!0.124661!0.090596!0.087632!0.124711!0.145316!0.005846!0.172443!0.056459!0.038635!0.087737!-0.026526!0.059969!-0.043923!-0.099918!-0.000060!-0.056488!0.022888!-0.138392!0.021354!-0.144636!0.001673!-0.030154!-0.052075!-0.072786!-0.128541!-0.039907!-0.074471!-0.011361!-0.165854!-0.025766!-0.012475!-0.147162!-0.198585!-0.160546!-0.192100!-0.271052!-0.140004!-0.258046!-0.219271!-0.263446!-0.139668!-0.143675!-0.032542!0.047324!0.013274!0.248235!0.290281!0.632755!0.747069!0.788983!0.990568!1.014139!1.099376!1.044530!1.012650!0.823431!0.591787!0.482339!0.367382!0.122901!-0.075789!-0.090155!-0.258096!-0.297956!-0.326480!-0.388835!-0.211810!-0.187706!-0.342637!-0.205943!-0.232531!-0.068144!-0.040261!-0.073713!-0.108649!-0.083308!-0.000221!-0.011789!-0.118969!-0.017207!-0.001334!0.015291!-0.089199!-0.087450!-0.126770!-0.009974!0.022512!0.052164!-0.101356!-0.026626!0.052169!-0.002109!-0.017825!-0.000028!-0.013313!0.032023!0.037248!-0.029010!0.077284!0.079987!0.124154!0.023858!0.141248!0.054823!0.147267!0.199067!0.169831!0.059661!0.157432!0.225045!0.184709!0.110255!0.246803!0.209881!0.142896!0.292188!0.264060!0.377516!0.277145!0.265231!0.267584!0.364969!0.320176!0.286758!0.312429!0.398652!0.373426!0.386808!0.472954!0.301638!0.417080!0.315606!0.360400!0.397552!0.332272!0.391648!0.410807!0.425538!0.468235!0.341516!0.427494!0.277262!0.360388!0.312078!0.294773!0.263883!0.202122!0.321495!0.165308!0.291410!0.277380!0.151953!0.102773!0.180070!0.220472!0.175341!0.077124!0.067336!0.055037!0.132496!0.125377!0.034523!0.144348!0.134077!0.054567!0.069383!0.097534!-0.066260!-0.008833!0.066935!0.018411!0.051441!-0.102560!0.074638!0.018959!0.065059!-0.061508!-0.014000!-0.039078!0.028611!-0.124772!-0.047437!-0.099597!-0.002294!0.003770!-0.126920!-0.063500!0.041121!-0.056116!-0.095881!-0.097426!-0.088689!0.019350!-0.053512!0.040153!-0.052349!-0.058062!-0.022249!-0.050952!-0.124507!-0.048797!0.043742!-0.036882!-0.103198!-0.097240!-0.029314!0.048540!-0.126429!-0.100121!-0.101003!-0.033789!-0.054561!0.024141!-0.101168!0.005415!-0.012924!0.036559!-0.005085!0.020308!0.023604!-0.000604!-0.074152!-0.094112!-0.025269!-0.044753!-0.111498!-0.113706!0.006568!-0.057103!-0.080774!0.035534!0.005198!0.027718!0.003220!0.029654!0.067544!-0.088100!0.039192!-0.094369!0.025168!0.071183!-0.079040!0.078764!0.080050!-0.020086!-0.057276!-0.091171!0.066375!0.015779!0.013348!-0.029875!0.074419!-0.082921!-0.053897!0.090283!-0.049680!-0.058307!0.074644!0.067138!0.023704!0.007634!-0.029621!-0.026117!0.057033!0.155691!0.026681!0.011180!0.107372!0.079571!0.188435!0.049499!0.113198!0.211161!0.132536!0.307006!0.273904!0.201879!0.256817!0.255270!0.212415!0.335484!0.310271!0.339395!0.336224!0.213353!0.322240!0.330271!0.245600!0.203268!0.269507!0.195219!0.208141!0.180249!0.155769!0.088069!0.134994!0.190038!0.144881!0.205239!0.031531!0.196586!0.018492!0.100387!0.046767!0.041698!0.111782!0.054800!0.031655!-0.061448!-0.005040!-0.017691!0.005120!-0.031824!0.056418!-0.010067!-0.047822!-0.066824!0.033091!-0.043572!-0.104162!-0.004399!0.015588!-0.156279!-0.131147!-0.178513!-0.218809!-0.193021!-0.194315!-0.086444!0.016257!0.052747!0.179995!0.298796!0.281855!0.505554!0.616210!0.896911!0.944428!1.086273!1.043436!1.185679!1.068895!0.888662!0.872680!0.521900!0.333942!0.275809!0.190430!-0.110048!-0.165532!-0.260753!-0.337476!-0.308096!-0.323410!-0.199340!-0.183907!-0.182626!-0.158757!-0.184982!-0.152707!-0.112375!-0.107610!-0.104056!0.053434!0.038501!0.064544!0.052781!-0.087495!-0.068966!-0.093960!-0.032360!-0.053418!0.013823!-0.081945!-0.054059!0.038640!0.037450!0.033757!0.121367!0.061128!0.060205!-0.044561!-0.002897!0.030224!0.112860!0.078872!0.123328!0.089197!0.158107!0.050427!0.207798!0.161614!0.090459!0.109665!0.085150!0.215278!0.278808!0.220943!0.302639!0.262475!0.343931!0.291743!0.339273!0.369807!0.400051!0.285428!0.358552!0.306496!0.279756!0.307110!0.355401!0.412190!0.347913!0.433253!0.463698!0.447147!0.520514!0.366458!0.359813!0.488687!0.392961!0.456397!0.475510!0.418400!0.423319!0.540972!0.362956!0.511209!0.492231!0.337861!0.333292!0.441840!0.314516!0.385597!0.344808!0.395156!0.378414!0.322268!0.369452!0.224804!0.327467!0.179388!0.250546!0.197534!0.236297!0.201275!0.154428!0.094802!0.096486!0.101467!0.048265!0.085006!0.079082!0.051917!0.172323!0.172680!0.150812!0.013393!-0.032855!0.013965!0.117626!-0.063036!-0.040090!-0.016283!-0.051400!-0.073244!0.095880!0.105729!-0.004775!-0.060801!0.104461!0.044802!0.040672!-0.017932!0.100127!0.083280!-0.069978!-0.012717!-0.018279!0.088032!-0.021153!0.059941!-0.099141!0.004773!0.043086!-0.054430!-0.040758!0.062637!0.081300!0.065291!0.035264!0.101602!0.039417!-0.054158!-0.065087!-0.053150!-0.072981!0.032440!0.044268!-0.027125!-0.054072!0.092670!-0.066130!0.106093!-0.046948!0.095525!0.046612!-0.041755!-0.055894!0.057907!-0.065386!0.027580!0.021249!-0.039644!0.050448!0.007997!0.016155!0.012143!0.073873!-0.007873!0.063182!-0.047932!0.020815!-0.039089!-0.041286!0.058035!0.102519!0.044061!-0.023917!0.041086!0.020482!0.099242!0.061227!0.048059!0.103141!0.088791!0.048044!-0.034102!0.115951!0.062365!0.070137!0.093197!0.009489!-0.015128!0.002075!0.133715!-0.010864!0.021056!-0.049277!0.104001!0.041909!-0.018796!0.162770!0.105457!0.065187!0.015241!0.055724!0.109844!0.099816!0.203052!0.067322!0.151286!0.208316!0.223075!0.253919!0.246235!0.231462!0.164261!0.241363!0.264023!0.317858!0.294674!0.244018!0.302162!0.221959!0.380441!0.260290!0.325571!0.365234!0.227811!0.294979!0.219346!0.296903!0.296456!0.229661!0.331230!0.290515!0.261177!0.305802!0.275779!0.268795!0.210845!0.070600!0.091039!0.096699!0.194124!0.147199!0.045150!0.009148!0.126847!0.128394!0.013572!0.115002!0.035977!0.123500!0.097950!-0.007955!-0.022082!0.008252!0.089530!-0.025308!0.077377!-0.029738!0.007342!-0.058204!-0.005888!-0.068225!-0.111206!-0.138045!-0.125916!-0.068607!-0.150162!-0.041934!-0.117396!-0.142747!-0.041639!0.134487!0.339459!0.419830!0.619746!0.734969!0.888742!0.920392!1.075606!1.198902!1.237730!1.147086!1.044047!0.903722!0.596596!0.560321!0.230639!0.132088!0.050313!-0.087671!-0.139583!-0.349257!-0.391202!-0.324195!-0.386698!-0.385755!-0.331699!-0.228079!-0.283225!-0.249530!-0.044315!-0.103367!0.013053!-0.023655!-0.012909!-0.088093!0.048327!-0.055116!-0.113142!-0.122472!-0.049333!-0.006723!-0.121996!-0.061884!-0.050069!0.020688!-0.046734!-0.085603!-0.000946!0.077032!-0.043194!0.010225!0.068495!-0.024313!-0.076634!0.075565!-0.009878!0.125833!-0.051031!0.050266!-0.007948!0.030773!0.090922!0.060976!0.166917!0.120045!0.064305!0.215338!0.062972!0.172354!0.204518!0.268012!0.256712!0.194856!0.303770!0.247531!0.189644!0.269858!0.214974!0.263469!0.300676!0.246960!0.323868!0.410907!0.456444!0.468043!0.352315!0.428917!0.491312!0.443743!0.357163!0.495263!0.524535!0.396221!0.383255!0.445978!0.477466!0.454112!0.329887!0.378466!0.337241!0.334398!0.443754!0.379855!0.383795!0.323417!0.421354!0.271960!0.231198!0.332306!0.327496!0.280610!0.366211!0.254725!0.213112!0.230131!0.120128!0.256420!0.125297!0.093465!0.138900!0.076495!0.077062!0.102059!0.158097!0.141620!-0.023685!-0.017744!-0.005882!0.110457!-0.027380!-0.011543!-0.032854!-0.017350!-0.084404!0.038741!-0.081349!0.029416!0.036470!-0.137907!0.021343!-0.090568!-0.128829!-0.070266!-0.124728!-0.148208!-0.008430!0.008718!-0.006752!-0.107230!0.004729!-0.022700!-0.157966!-0.037514!-0.157159!-0.152838!-0.069422!-0.026615!-0.116354!0.023666!-0.057442!0.014191!-0.125432!-0.004000!-0.082392!-0.160012!-0.157055!-0.014426!-0.150145!0.026592!-0.071183!-0.022609!-0.099995!-0.155667!-0.005320!-0.121407!-0.158255!-0.157612!-0.027250!-0.083364!-0.028975!-0.000306!-0.092739!-0.061354!-0.018312!-0.087541!-0.014108!-0.073581!0.009619!-0.111594!-0.023683!-0.139543!-0.097322!-0.061444!-0.099427!-0.026421!0.006638!0.017739!0.009321!-0.010481!-0.014900!-0.023319!-0.044252!-0.027931!-0.103658!-0.055331!0.022073!-0.021983!-0.008648!-0.047402!0.030044!-0.156189!-0.056406!-0.108313!-0.123002!-0.126515!-0.124150!-0.101362!-0.084557!-0.032718!-0.083039!-0.065637!-0.006506!-0.105556!-0.019125!-0.145768!-0.061172!0.009730!-0.033747!-0.022141!0.010559!-0.000552!0.015939!-0.052319!0.060722!0.083114!-0.101120!0.014335!0.056512!0.110817!-0.057001!0.131235!0.076681!0.002645!0.050342!0.052469!0.026858!0.071638!0.105879!0.258126!0.268280!0.186241!0.215711!0.254634!0.316178!0.314712!0.130685!0.311388!0.183722!0.151942!0.311697!0.307665!0.173645!0.262703!0.183543!0.230276!0.080629!0.234684!0.210558!0.092066!0.191338!0.066661!0.019286!0.114973!0.002191!-0.016090!0.007422!0.062976!-0.007107!-0.043355!0.022212!-0.055550!0.058574!-0.115795!0.037133!0.032974!-0.153651!-0.153879!-0.057854!-0.019653!-0.031320!-0.063647!-0.111234!-0.064651!-0.006437!-0.015193!-0.142129!-0.162701!-0.098295!-0.189954!-0.147059!-0.185555!-0.300431!-0.263120!-0.238139!-0.343046!-0.243600!-0.303214!-0.167339!-0.131498!0.081566!0.130923!0.366851!0.370573!0.702042!0.748348!0.847590!0.930298!1.069965!1.097455!1.056845!0.886079!0.814396!0.646657!0.587905!0.377050!0.109521!-0.025549!-0.020881!-0.129936!-0.237336!-0.272591!-0.449558!-0.433327!-0.345913!-0.285308!-0.351062!-0.270959!-0.128541!-0.086986!-0.100216!-0.215781!-0.128897!-0.165461!-0.140335!-0.103218!-0.136227!-0.145681!-0.090676!-0.130664!0.015605!-0.096562!-0.098253!0.030284!-0.100336!0.015644!-0.085881!-0.156140!-0.000854!-0.063771!-0.118749!0.030333!-0.040813!-0.126732!0.064525!-0.041265!0.063753!0.072418!-0.089748!0.089313!0.097740!-0.045197!0.135432!0.037268!0.149023!0.084501!0.039270!0.158596!0.135446!0.069404!0.117649!0.069429!0.268008!0.188059!0.288278!0.156829!0.264982!0.234930!0.206509!0.336066!0.239886!0.217220!0.282252!0.259296!0.328630!0.340192!0.428275!0.440757!0.447930!0.362170!0.381996!0.467341!0.384480!0.393611!0.299665!0.328667!0.408822!0.371509!0.281674!0.355413!0.361549!0.363539!0.350921!0.263465!0.220820!0.372077!0.279929!0.192698!0.189941!0.140451!0.242846!0.280089!0.106967!0.194278!0.201660!0.210179!0.116538!0.076423!0.135342!0.061260!0.070693!0.007771!-0.016249!0.063779!-0.092798!0.024183!-0.075170!0.004836!-0.080115!0.027477!-0.074206!-0.015060!-0.110697!-0.095414!-0.123861!-0.072205!-0.115013!-0.169125!-0.168646!-0.061417!-0.152679!-0.042157!-0.177658!-0.078664!-0.167463!-0.088313!-0.152418!-0.128194!-0.080322!-0.151225!-0.161822!-0.075813!-0.067705!-0.117762!-0.182398!-0.148654!-0.105185!-0.063720!-0.206370!-0.071702!-0.050368!-0.058612!-0.041093!-0.142349!-0.047128!-0.127910!-0.216770!-0.031062!-0.111611!-0.164949!-0.141520!-0.156946!-0.063712!-0.218970!-0.072734!-0.098091!-0.085698!-0.051177!-0.201183!-0.078636!-0.148634!-0.066214!-0.190148!-0.071811!-0.210588!-0.134259!-0.043140!-0.050065!-0.147244!-0.083128!-0.135022!-0.124306!-0.092081!-0.014124!-0.196573!-0.139810!-0.169443!-0.129601!-0.137584!-0.052049!-0.099911!-0.066618!-0.103141!-0.090911!-0.163203!-0.070296!-0.139510!-0.067974!-0.010369!-0.063752!-0.084596!-0.169603!-0.034700!-0.104701!-0.150115!-0.160488!-0.016995!-0.044669!-0.038185!-0.171336!-0.128884!-0.125991!-0.146653!0.009838!-0.141332!-0.129357!-0.110524!-0.102534!-0.062938!-0.055688!-0.137702!-0.054643!-0.068547!-0.027734!0.027641!0.000091!-0.070185!-0.051028!-0.071316!0.034469!-0.026202!0.075752!0.053829!0.077857!0.071078!0.098401!0.096577!0.225845!0.191504!0.223631!0.246144!0.251829!0.173470!0.108199!0.106085!0.275523!0.280171!0.158064!0.240576!0.210077!0.235213!0.229861!0.102782!0.057026!0.142025!0.036864!0.001383!0.050761!0.147765!-0.013559!0.017283!0.018217!-0.055455!0.017803!-0.115277!0.034149!-0.071322!-0.111969!-0.100434!-0.026114!-0.078003!0.006864!-0.120182!-0.069055!-0.124330!0.002234!-0.038118!-0.076843!-0.108173!-0.037860!-0.081737!-0.142202!-0.213969!-0.090241!-0.058100!-0.162570!-0.261860!-0.172232!-0.146295!-0.293483!-0.214108!-0.202717!-0.179739!-0.145003!-0.012344!-0.027847!0.144662!0.319719!0.317376!0.508670!0.636286!0.955733!1.011565!0.989778!1.076634!0.966827!0.909441!0.766375!0.667314!0.558401!0.242349!0.128645!0.071284!-0.134759!-0.119195!-0.312922!-0.273166!-0.311384!-0.414076!-0.403214!-0.196647!-0.325164!-0.246145!-0.247864!-0.095846!-0.073832!-0.164264!-0.012495!-0.091480!-0.084357!-0.030157!-0.140929!-0.049727!0.035844!-0.035323!-0.022912!-0.017572!-0.061933!-0.043996!-0.096987!-0.029412!-0.018030!0.030439!0.035331!-0.080178!0.022330!0.063487!-0.053539!0.068324!0.067792!-0.012630!0.068559!0.044415!0.003086!0.014640!0.038926!-0.009518!0.035756!-0.000551!0.138036!0.199749!0.106830!0.096901!0.234445!0.222834!0.141415!0.175462!0.272455!0.302368!0.280660!0.216881!0.218806!0.297036!0.331058!0.224458!0.416317!0.394458!0.330085!0.388860!0.383186!0.348577!0.328034!0.489960!0.436141!0.403527!0.383265!0.343092!0.461647!0.379438!0.316039!0.465465!0.407976!0.402329!0.328573!0.396549!0.334352!0.384362!0.352807!0.396549!0.253534!0.188306!0.318131!0.320063!0.218747!0.192496!0.292269!0.192151!0.268090!0.203312!0.079137!0.130920!0.093122!0.172947!0.103851!0.005287!0.064347!0.154055!0.040010!-0.028173!0.046952!0.112081!0.082085!-0.078018!0.068890!0.079186!0.082695!0.040856!-0.076840!-0.077868!-0.114267!-0.081229!-0.110269!0.001424!-0.059576!-0.002068!0.047532!0.011017!-0.039896!-0.057831!-0.110478!-0.127120!-0.014704!-0.038539!-0.056005!0.009395!-0.102161!-0.058585!-0.137204!-0.092713!-0.026600!0.017829!-0.004629!0.005849!-0.060284!-0.098368!-0.063994!-0.096540!-0.081829!-0.029960!-0.068938!0.033183!-0.086118!0.000632!-0.107725!-0.087307!-0.093546!-0.007893!-0.112397!-0.038700!-0.103997!-0.112071!0.008636!0.040947!-0.097300!-0.106764!0.020079!-0.016732!0.016428!-0.026751!-0.078070!-0.017936!-0.102582!-0.060304!0.046536!-0.051040!0.033619!0.063013!-0.018737!0.006548!-0.020335!0.021055!0.000639!-0.098119!0.041040!-0.099798!0.012231!0.063729!-0.032506!-0.100529!-0.109689!0.034039!-0.119820!0.001854!-0.047217!-0.038725!-0.037303!-0.031639!0.051125!0.032298!0.069678!0.046912!-0.042225!-0.064974!0.028340!-0.077866!0.080953!0.025133!0.068443!0.036714!-0.041754!-0.053788!0.103496!-0.023056!-0.032061!0.083894!0.070168!0.081498!0.183639!0.047122!0.188128!0.178526!0.242956!0.186950!0.130271!0.156063!0.243918!0.208256!0.217336!0.162485!0.319980!0.222120!0.314221!0.335284!0.333888!0.351681!0.335434!0.312874!0.198292!0.370833!0.245097!0.165594!0.286278!0.324603!0.220364!0.214635!0.112087!0.193702!0.160915!0.094243!0.155044!0.209091!0.099686!0.027022!0.101598!0.101779!0.047180!-0.035018!0.139060!-0.057407!0.077586!0.042040!0.111947!-0.002802!0.017079!0.070481!-0.011594!-0.061365!0.016768!0.017311!0.055015!0.079815!-0.063300!-0.148382!-0.156023!-0.097956!-0.016781!-0.227365!-0.177612!-0.223781!-0.077980!-0.099476!-0.004463!0.039602!0.076626!0.110719!0.341705!0.479312!0.681344!0.919644!1.062108!1.181734!1.153771!1.209116!1.050987!0.966968!0.844719!0.819415!0.473610!0.416278!0.146516!0.122445!-0.102332!-0.106784!-0.175581!-0.320250!-0.363520!-0.371235!-0.204090!-0.216565!-0.299027!-0.157683!-0.219303!-0.199454!-0.038690!-0.126984!-0.148576!-0.131820!-0.046537!-0.002192!-0.106314!-0.111685!0.005686!-0.036985!-0.072179!0.022498!0.010650!0.073083!-0.013550!-0.079792!0.112557!-0.074576!-0.053855!0.017095!0.090814!0.016370!0.092269!0.015413!0.022851!0.083588!0.156884!0.012314!0.009039!0.086447!0.199688!0.173352!0.056825!0.194705!0.191927!0.121887!0.102242!0.285342!0.255032!0.217072!0.204360!0.196503!0.277280!0.194251!0.324135!0.243409!0.394421!0.354837!0.252339!0.428823!0.300207!0.331135!0.372270!0.349242!0.452794!0.354215!0.505522!0.486465!0.411447!0.508775!0.529651!0.419969!0.472467!0.370126!0.515938!0.559075!0.557661!0.490778!0.436464!0.347486!0.410540!0.466973!0.400055!0.355641!0.487891!0.333338!0.278431!0.309665!0.404109!0.387325!0.238412!0.223552!0.195639!0.333250!0.269279!0.204644!0.273335!0.242697!0.146750!0.201382!0.160294!0.092082!0.157006!0.199197!0.163624!0.174447!0.097341!0.052902!0.011778!-0.016644!0.051640!-0.030076!0.062778!0.106721!-0.058925!0.004749!0.029050!0.048477!-0.063179!0.063078!-0.012725!-0.087192!-0.084132!-0.096737!0.014639!0.050173!-0.085981!-0.091896!0.022667!0.074918!-0.024587!0.049365!-0.006024!-0.054872!-0.031540!-0.012808!0.036779!0.008924!-0.013199!-0.054649!0.022650!-0.097922!-0.092964!0.043369!-0.099635!0.026411!0.074805!0.077775!-0.042742!0.061627!0.013195!0.086927!0.060633!-0.043132!0.101814!0.048062!-0.039401!0.022145!0.054207!-0.005026!-0.086315!0.097140!0.003164!-0.076269!-0.081717!0.034369!-0.030285!0.057335!0.022419!0.052863!0.040034!-0.027206!0.020654!0.071945!0.048556!0.108211!0.045960!-0.036305!0.005012!-0.034299!0.067870!0.020668!-0.061597!0.054397!0.050108!0.099213!0.016503!0.011700!0.052221!0.107566!-0.014013!-0.074166!0.076418!-0.060578!0.030268!0.083566!0.034237!0.086246!-0.010118!0.007319!0.023607!-0.016026!0.088611!0.034261!0.063498!0.043660!0.113682!0.109095!0.052737!0.132398!0.064491!0.164321!-0.005766!0.063710!0.115840!0.051133!0.154416!0.164535!0.194833!0.213511!0.194409!0.247639!0.158381!0.167232!0.141997!0.288803!0.247578!0.196315!0.325366!0.390953!0.291896!0.246279!0.219642!0.277699!0.313925!0.232746!0.234249!0.227754!0.344243!0.211806!0.368407!0.224498!0.219289!0.178563!0.328767!0.163428!0.186351!0.116596!0.204337!0.147238!0.149574!0.238613!0.060629!0.204208!0.095899!0.181051!0.048790!0.151483!-0.028039!0.100733!0.123077!0.004099!0.065624!0.133588!0.035655!0.093484!0.066179!-0.067265!-0.055502!0.115004!-0.036183!-0.081284!-0.102738!-0.019885!-0.094655!0.002607!-0.066921!-0.138235!-0.122615!-0.160155!-0.142343!-0.052333!-0.210234!-0.175408!-0.067600!0.087023!0.154517!0.351212!0.440296!0.551670!0.762565!1.012809!1.117514!1.174983!1.155937!1.201440!1.093470!0.934684!0.753980!0.759565!0.565861!0.395488!0.210887!0.043202!-0.153002!-0.228439!-0.337700!-0.306154!-0.235724!-0.321661!-0.355008!-0.318048!-0.149307!-0.195804!-0.195467!-0.108267!-0.032744!-0.071623!0.000954!0.015833!0.075835!0.041176!-0.076361!0.040641!-0.046685!0.083346!0.035593!-0.076992!0.053769!0.002279!-0.034334!0.054312!0.042950!0.079199!-0.002769!0.082439!-0.053699!-0.032969!0.126294!0.022073!0.158903!0.087705!0.028337!0.054575!0.089807!0.056415!0.170787!0.073395!0.068660!0.190137!0.188807!0.204973!0.109941!0.166975!0.230155!0.147164!0.162992!0.306605!0.323094!0.348309!0.210888!0.329601!0.328037!0.400948!0.392775!0.262707!0.440050!0.375306!0.390281!0.407061!0.391565!0.399810!0.372029!0.359921!0.487208!0.353572!0.552394!0.370592!0.435187!0.423192!0.486283!0.451636!0.353675!0.351879!0.418014!0.423398!0.511612!0.368932!0.432195!0.422505!0.278869!0.407222!0.344883!0.254153!0.313023!0.281184!0.381285!0.225975!0.319975!0.326458!0.311587!0.159658!0.165938!0.087240!0.152398!0.217468!0.208160!0.042948!0.206798!0.030355!0.143249!0.077073!0.110775!0.111790!0.136246!0.058462!-0.010906!0.099376!-0.015549!-0.070292!-0.028091!-0.018848!0.029771!0.062469!-0.098905!0.049551!-0.111063!-0.088633!-0.133153!-0.058255!-0.004680!0.016446!-0.039367!-0.033632!-0.047376!0.039797!0.030036!-0.032504!-0.047063!-0.080551!-0.117365!-0.022139!-0.121750!-0.125672!-0.131540!0.011729!-0.131024!-0.080301!-0.000730!0.021424!-0.136670!-0.038515!-0.082458!-0.117151!0.014291!-0.032604!0.012098!-0.082467!0.029777!-0.127180!-0.031994!-0.021077!-0.137897!0.012807!0.042015!0.002179!-0.051040!-0.030690!-0.074584!-0.119395!-0.090506!-0.021355!-0.058751!0.024894!-0.009623!-0.027473!-0.069989!-0.053608!-0.090075!0.047167!-0.131389!-0.061910!-0.131080!0.023302!0.029655!-0.101738!-0.051082!-0.019002!-0.065368!-0.128305!-0.006112!0.010465!-0.009184!-0.006200!-0.079847!-0.011226!0.018421!0.031250!0.011135!-0.051906!0.012757!-0.089658!-0.130544!0.053411!-0.049626!-0.112110!-0.066495!-0.059207!-0.026812!0.022096!-0.081554!-0.059699!-0.105254!-0.022431!0.037267!0.063610!-0.083551!-0.060232!-0.037351!0.009708!-0.038432!0.001499!0.013382!0.095341!0.122265!0.123276!0.027066!0.010926!0.209052!0.031378!0.145855!0.086814!0.178958!0.263709!0.187767!0.142133!0.193828!0.181098!0.332156!0.320365!0.270394!0.207894!0.257068!0.297538!0.154591!0.277329!0.214173!0.142877!0.120321!0.269695!0.167579!0.240099!0.128338!0.142039!0.033389!0.155952!0.010942!-0.006649!0.069223!0.136264!0.014563!0.017661!0.064121!0.013526!-0.018457!-0.026050!-0.060090!-0.008869!-0.115016!-0.033503!0.034209!-0.085681!-0.090995!-0.044431!-0.025434!-0.041625!0.014485!-0.111149!-0.101872!-0.128369!-0.161390!-0.146125!-0.056135!-0.231265!-0.171732!-0.284076!-0.280566!-0.180839!-0.290856!-0.244888!-0.217654!-0.043466!-0.129815!0.100447!0.153279!0.400437!0.437121!0.786187!0.831368!1.046847!1.027377!1.013718!1.113222!0.943459!0.937417!0.786426!0.645265!0.417968!0.230992!0.046409!-0.096457!-0.087478!-0.291342!-0.355001!-0.292701!-0.269229!-0.317880!-0.224462!-0.257840!-0.123824!-0.121929!-0.151613!-0.180512!-0.056876!0.016878!0.038277!-0.059167!0.043626!-0.025557!0.051714!-0.133448!-0.045355!-0.009025!0.029801!0.068453!0.045407!0.078075!0.010778!-0.084286!-0.106582!0.081168!-0.083259!0.012766!0.058683!0.019103!0.011574!0.065219!-0.014194!0.032315!0.119407!0.072900!0.161876!0.162532!0.174280!0.109212!0.009750!0.081719!0.206303!0.078054!0.230750!0.203603!0.107137!0.294096!0.154422!0.236391!0.145910!0.271964!0.257273!0.222036!0.382923!0.370982!0.354961!0.293004!0.254754!0.267114!0.396250!0.378672!0.373331!0.394738!0.447979!0.448379!0.313449!0.391600!0.304383!0.461542!0.460349!0.458004!0.401123!0.406660!0.337652!0.404704!0.294064!0.252221!0.386582!0.399460!0.318645!0.183429!0.324211!0.327169!0.144782!0.297103!0.273586!0.128768!0.144527!0.069917!0.225078!0.053853!0.106152!0.074773!0.103424!0.072778!-0.023337!0.037897!0.027557!0.002237!0.027363!-0.085348!-0.068639!-0.047480!-0.081539!-0.106571!0.002473!-0.090233!-0.038970!-0.137058!0.027389!-0.092823!-0.042375!0.020582!-0.068597!-0.171461!-0.113413!-0.165383!-0.026244!-0.104729!-0.160484!-0.045867!-0.056158!-0.133432!-0.091064!-0.041855!-0.096752!-0.013393!-0.119125!-0.039191!-0.176148!-0.188650!-0.073499!-0.018941!-0.074102!0.000936!-0.121730!-0.125660!-0.040914!-0.158478!0.011286!-0.133081!-0.157030!-0.037412!-0.153159!-0.026462!-0.033118!-0.168210!0.011266!-0.050371!-0.127452!-0.130514!-0.082836!-0.069335!-0.145057!-0.064594!-0.096130!-0.156958!-0.150121!-0.138309!-0.122561!-0.024915!-0.115956!-0.066164!-0.055211!-0.112299!0.019952!-0.036315!-0.057684!-0.107701!-0.139573!-0.133959!-0.165555!-0.020758!-0.142265!-0.136363!-0.163005!-0.018722!-0.132937!-0.129765!-0.028981!-0.031801!-0.128008!-0.093339!-0.055135!-0.072861!0.020346!0.008251!-0.024222!-0.149430!-0.102945!-0.128068!-0.141059!-0.103314!0.042050!-0.064975!-0.108071!0.004317!0.056776!-0.031347!0.066461!0.067595!-0.005543!-0.028194!0.039088!-0.021482!0.003856!0.108923!0.010490!0.015260!0.166546!0.008912!0.184158!0.129174!0.129560!0.146685!0.136920!0.182637!0.157418!0.164936!0.276481!0.214017!0.239926!0.251057!0.153566!0.192364!0.222319!0.172450!0.207372!0.077182!0.164633!0.155674!0.220680!0.206163!0.086680!0.046674!-0.025682!0.028692!0.044750!-0.051910!-0.046201!0.035256!0.081889!0.053353!-0.054899!-0.125430!-0.091851!-0.015292!-0.039967!-0.096750!-0.083502!-0.039958!0.004606!-0.021035!-0.141091!-0.126617!-0.132992!-0.131575!-0.014045!-0.057411!-0.118631!-0.147665!-0.257193!-0.201275!-0.255590!-0.251520!-0.299437!-0.181636!-0.242815!-0.131512!-0.064138!-0.000480!0.125715!0.308337!0.498994!0.669124!0.639763!0.787725!1.083053!1.031676!1.080835!1.030100!0.898307!0.781880!0.581791!0.494463!0.266077!0.013370!-0.005376!-0.242853!-0.288922!-0.375986!-0.343024!-0.296291!-0.223910!-0.336236!-0.289691!-0.191357!-0.136750!-0.187613!-0.181272!-0.092041!-0.126254!-0.080910!-0.155229!0.029423!-0.130799!-0.046744!0.007372!-0.081883!-0.021051!-0.127403!-0.132142!-0.122272!0.035988!0.031250!-0.063557!0.021467!0.050950!-0.101563!0.024034!0.061622!-0.075931!-0.071394!0.036557!0.053634!-0.052753!0.133200!-0.026066!-0.037930!0.097892!0.153203!0.083685!0.181453!0.183102!0.067854!0.068669!0.150476!0.260527!0.218185!0.109194!0.316803!0.246939!0.310413!0.225077!0.198752!0.201870!0.379381!0.231834!0.329828!0.274568!0.269247!0.277328!0.320397!0.395301!0.339218!0.335397!0.333867!0.358740!0.484882!0.370156!0.302625!0.351230!0.458663!0.378223!0.379580!0.312164!0.445122!0.283478!0.296632!0.228396!0.302273!0.278698!0.386438!0.226392!0.200328!0.163309!0.157101!0.300064!0.260893!0.258107!0.241370!0.099101!0.177265!0.085657!0.165831!0.164736!0.144708!0.096187!-0.008601!0.136256!0.026426!-0.041995!-0.061949!0.029082!-0.064989!-0.075565!-0.030211!0.086858!-0.047445!0.059002!-0.032979!-0.077935!-0.083410!-0.105381!-0.027919!-0.103434!-0.124423!-0.085684!-0.100829!-0.027039!-0.053501!0.035904!-0.064080!-0.028608!-0.135876!-0.146188!-0.124458!-0.121440!-0.055541!-0.068222!0.005934!-0.031536!-0.104929!0.029545!0.036044!-0.017725!-0.068166!0.043452!-0.021971!0.025775!-0.107297!0.040378!-0.108909!-0.114439!-0.084679!-0.069968!-0.120825!-0.099377!-0.071825!0.017942!0.045865!-0.064567!-0.056511!-0.101702!0.036649!-0.089403!-0.131204!0.061720!0.065353!0.029401!-0.091490!-0.097929!-0.075313!-0.003077!0.063274!-0.034149!-0.067767!-0.121097!-0.102067!0.051602!-0.092104!0.019595!0.009429!-0.077619!-0.041824!0.040926!0.037466!0.039950!-0.013682!-0.063487!0.005889!-0.000331!-0.041472!-0.079225!-0.005808!-0.078488!0.072681!0.033050!0.081202!0.001387!-0.046902!-0.053382!-0.034443!-0.020449!0.108994!-0.055113!0.085571!-0.020714!0.113216!0.031911!0.142492!-0.028715!0.084047!-0.018578!0.044036!0.094875!0.044945!0.147076!0.140786!0.211855!0.097892!0.153459!0.128306!0.211087!0.220870!0.307639!0.257611!0.324846!0.321094!0.185114!0.203402!0.243657!0.295365!0.209200!0.302333!0.307518!0.240092!0.212098!0.325917!0.211233!0.258093!0.174141!0.256755!0.097885!0.133187!0.150289!0.061933!0.214768!0.090188!0.190354!0.112048!0.066217!0.014839!-0.008461!0.066148!-0.026407!0.016275!0.058654!0.066987!0.012894!-0.024671!-0.068712!0.021209!0.028397!0.077317!0.032815!0.004513!-0.000682!-0.034545!-0.090731!-0.001412!-0.096078!-0.084589!-0.113536!-0.219390!-0.201632!-0.177330!-0.204724!-0.020698!0.070156!0.210245!0.161398!0.428724!0.477870!0.682735!0.862788!0.917740!1.125928!1.139757!1.090161!0.950226!0.966669!0.745005!0.697872!0.485387!0.236529!0.107050!0.053192!-0.060329!-0.217150!-0.190985!-0.246484!-0.204853!-0.301881!-0.322211!-0.147940!-0.093694!-0.080842!-0.208267!-0.149069!-0.001418!-0.086166!0.039148!-0.103189!0.067479!-0.072616!-0.104748!0.005899!0.070787!0.057894!0.079566!-0.020529!0.012587!0.035513!-0.061847!0.082676!-0.004413!0.078869!-0.040200!0.125772!0.105702!0.104409!0.027163!-0.033342!0.082473!0.166446!0.064030!0.017412!0.172598!0.038052!0.016280!0.199960!0.233576!0.195277!0.207819!0.186896!0.210961!0.125782!0.256605!0.298524!0.305706!0.182934!0.360768!0.264788!0.271912!0.412678!0.253587!0.399889!0.337511!0.292819!0.483058!0.433975!0.474892!0.511351!0.453798!0.340920!0.440883!0.383750!0.473883!0.429418!0.481777!0.524752!0.504459!0.426872!0.485716!0.353750!0.498138!0.474917!0.328663!0.412482!0.487371!0.340048!0.462533!0.295799!0.297823!0.404910!0.379638!0.348212!0.362666!0.203776!0.194851!0.187624!0.238552!0.292638!0.219984!0.153177!0.211122!0.075478!0.104696!0.153204!0.057238!0.053318!0.178537!0.165558!0.017421!0.031623!0.032708!-0.009574!-0.016235!0.097402!0.070257!0.037367!0.048677!-0.027690!-0.021809!0.082823!-0.079375!-0.026820!0.091855!-0.072821!0.050493!-0.089122!0.085769!0.025743!-0.085286!-0.026632!0.006782!0.018720!-0.054002!0.039909!-0.033407!0.046485!0.040562!0.081007!-0.087936!-0.043247!-0.106542!-0.006565!0.088085!-0.100181!-0.004376!-0.020467!0.062377!0.041346!-0.093343!0.051829!-0.063837!0.019400!0.020710!0.070868!0.073866!-0.066807!0.050225!0.076408!0.094118!-0.018556!-0.075944!-0.054280!-0.021336!0.091878!-0.004580!-0.016418!0.003668!-0.073821!0.005370!0.064583!-0.059184!-0.027909!0.108879!-0.008353!0.045667!0.067811!0.036700!-0.049970!-0.081159!-0.045013!0.025805!-0.021473!-0.042708!0.017321!0.039768!0.080002!0.042047!0.000611!0.014246!-0.077955!0.008496!-0.046131!0.016297!0.086456!0.033364!-0.066922!-0.018264!-0.062565!-0.001518!-0.042276!0.003353!-0.026156!-0.005963!0.088492!0.099771!0.144314!0.125088!-0.004097!0.002199!0.155049!0.107149!-0.000127!0.088776!0.031836!0.186917!0.200495!0.167891!0.054653!0.254684!0.206573!0.110034!0.163266!0.275157!0.175672!0.155711!0.190525!0.246391!0.325641!0.216531!0.305292!0.238103!0.341450!0.327255!0.339626!0.378119!0.318002!0.228051!0.335908!0.354515!0.255039!0.167589!0.157528!0.192066!0.314024!0.190590!0.125203!0.141043!0.098253!0.125413!0.169471!0.169725!0.038019!0.049231!0.184271!0.120178!0.056319!-0.008078!0.048162!0.070676!0.096422!-0.021493!0.102088!-0.020084!0.112234!0.118710!0.025104!-0.012447!-0.044971!-0.075198!-0.068183!0.012636!0.021393!-0.052712!-0.119077!-0.072069!-0.050403!-0.195796!-0.086692!-0.133041!-0.119690!-0.071054!-0.057216!0.047753!0.258744!0.387172!0.553086!0.646649!0.736501!0.986686!1.044634!1.087563!1.161062!1.210905!1.020897!0.977898!0.722103!0.597915!0.351763!0.221401!0.150336!-0.048204!-0.141058!-0.303108!-0.320088!-0.363109!-0.252262!-0.282018!-0.213067!-0.202969!-0.242966!-0.147045!-0.001166!-0.095642!0.018357!-0.123023!-0.084889!0.028301!-0.046891!-0.017764!0.007226!0.057040!-0.047704!0.031770!0.052277!-0.045424!0.010977!0.092846!0.118376!0.078854!-0.042502!0.054041!-0.001980!0.057119!0.091809!0.119895!-0.034581!0.080754!0.048970!0.055944!0.055440!0.037607!0.099415!0.202864!0.108747!0.222895!0.047347!0.160573!0.237219!0.134497!0.100070!0.219538!0.152476!0.187351!0.189370!0.282696!0.178420!0.275023!0.242265!0.291264!0.234397!0.430192!0.346337!0.425212!0.300510!0.442526!0.495493!0.329016!0.394439!0.430172!0.334456!0.528682!0.433892!0.543395!0.395333!0.422857!0.401319!0.349429!0.357465!0.414307!0.444627!0.372672!0.435341!0.486547!0.427769!0.387213!0.403382!0.413711!0.314364!0.344376!0.372751!0.235989!0.373743!0.322589!0.341567!0.266025!0.253747!0.184590!0.274706!0.135113!0.088255!0.117632!0.143477!0.060849!0.119635!0.057461!0.179860!0.045703!0.051377!0.123557!0.013032!0.066297!0.033039!-0.066792!-0.027063!0.004478!0.033143!0.093015!0.015620!0.038016!-0.068783!-0.084577!-0.080086!-0.027054!-0.009888!-0.116063!-0.056917!0.054200!-0.011580!0.013429!-0.128449!-0.049459!-0.133235!-0.060430!-0.038812!0.022867!-0.070574!0.016542!-0.097831!-0.139537!0.033086!-0.007940!-0.012863!0.002601!-0.143107!-0.025044!-0.045505!-0.034438!-0.032439!-0.106246!0.017337!-0.084222!-0.059221!-0.110776!-0.094527!-0.132560!0.002839!-0.068721!-0.022093!-0.117368!-0.072005!-0.116770!-0.074955!-0.049577!-0.032577!-0.031737!0.014693!0.018022!-0.044075!-0.044532!-0.003795!-0.037599!0.036564!0.045187!-0.024760!0.000925!-0.058774!-0.142363!-0.037784!-0.100902!-0.107078!0.047084!0.005372!-0.094329!-0.122082!0.056649!-0.010330!-0.049052!-0.129352!-0.040827!-0.031951!-0.079763!-0.069655!0.007968!0.018749!-0.021129!-0.081708!-0.005011!-0.059906!-0.029952!-0.009211!0.000514!-0.004748!-0.092326!0.058779!-0.033996!-0.034446!-0.027107!-0.089423!-0.091583!0.027078!0.067357!-0.068185!-0.001046!-0.077922!-0.053922!0.073937!0.137503!0.053681!0.165334!0.086633!0.157428!0.148536!0.104275!0.057255!0.187375!0.160569!0.115281!0.112330!0.263058!0.155250!0.171495!0.250060!0.267845!0.187667!0.234238!0.285926!0.144891!0.247925!0.239386!0.123161!0.201508!0.166625!0.155951!0.159715!0.134794!0.167882!0.168238!0.059255!0.134521!0.019764!0.053706!0.083033!-0.021995!0.081473!-0.071958!-0.089342!0.094624!0.025133!0.068357!0.049402!0.058141!-0.119577!0.035812!-0.042212!0.012298!-0.004413!0.020105!0.001827!-0.120427!-0.140088!-0.025180!0.005769!-0.019759!-0.178536!-0.207305!-0.166690!-0.102164!-0.268376!-0.190432!-0.244126!-0.171783!-0.191404!-0.190448!-0.122064!0.057378!0.161201!0.232834!0.441868!0.495523!0.749177!0.816121!0.934069!1.122372!1.104749!1.053456!1.035949!0.829692!0.785920!0.518916!0.332636!0.215287!0.116124!-0.094740!-0.160789!-0.328698!-0.283925!-0.381206!-0.245450!-0.338929!-0.332431!-0.252134!-0.155625!-0.133504!-0.126572!-0.037274!-0.170832!-0.015043!-0.008060!-0.000615!-0.116713!-0.107062!-0.063868!0.020189!-0.056277!-0.025392!-0.136977!-0.036177!-0.099376!-0.129797!0.024529!-0.013223!-0.114867!0.016045!-0.058098!-0.068471!0.045669!0.061835!-0.060913!0.061823!-0.088996!0.031947!0.088724!-0.055259!0.114666!0.060836!-0.041061!-0.032481!-0.002686!0.157015!0.101330!0.047195!0.039681!0.092109!0.070916!0.243209!0.252243!0.151134!0.132020!0.268169!0.183827!0.162906!0.233130!0.259588!0.286494!0.343776!0.394277!0.358480!0.389013!0.405903!0.255660!0.424373!0.339487!0.376219!0.269683!0.426561!0.367669!0.336674!0.373518!0.424821!0.394592!0.417670!0.435231!0.359493!0.316953!0.366130!0.257394!0.274203!0.337763!0.310419!0.286713!0.212342!0.159977!0.197641!0.256661!0.108858!0.067612!0.210032!0.103788!0.062640!0.166025!0.010363!0.026152!0.122965!0.009698!0.076455!0.059624!-0.031584!-0.060007!-0.055659!-0.087677!-0.076778!-0.114594!-0.036277!-0.021388!-0.072046!-0.068813!0.018049!-0.138104!-0.014989!-0.126925!-0.061995!-0.097970!-0.184977!-0.103374!-0.074885!-0.127677!-0.154246!-0.086781!-0.126434!-0.138247!-0.202171!-0.112149!-0.089809!-0.025177!-0.065725!-0.038352!-0.125609!-0.100398!-0.091454!-0.168059!-0.189809!-0.164962!-0.168938!-0.165018!-0.173670!-0.056498!-0.120945!-0.197613!-0.201915!-0.083148!-0.188683!-0.112412!-0.087961!-0.165956!-0.018529!-0.060607!-0.132561!-0.151067!-0.029844!-0.131918!-0.206329!-0.181645!-0.081503!-0.097304!-0.156691!-0.127487!-0.171615!-0.053610!-0.047135!-0.109694!-0.187865!-0.080978!-0.009925!-0.103633!-0.108299!-0.003217!-0.059252!-0.108315!-0.198077!-0.098434!-0.061648!-0.185779!-0.183960!-0.075262!-0.116987!-0.115479!-0.090804!-0.183471!-0.083937!-0.031395!-0.137848!-0.067783!-0.168470!-0.026520!-0.029921!-0.043461!-0.009825!-0.102101!-0.050310!-0.055166!-0.107724!-0.005596!-0.013211!-0.136068!-0.067129!-0.076428!0.017173!-0.164257!-0.100086!0.037513!0.020896!-0.121157!-0.124162!0.058709!-0.002198!0.066466!-0.027548!0.026300!-0.025324!-0.047732!0.153515!0.085853!0.014074!0.099042!0.172883!0.143416!0.235716!0.141019!0.104852!0.251467!0.122622!0.266532!0.268191!0.198235!0.255842!0.267795!0.174308!0.200074!0.183458!0.128696!0.243326!0.127074!0.214766!0.115253!0.085517!0.128373!0.141403!-0.003488!0.116963!0.052875!0.004482!0.034105!-0.084857!0.022927!-0.108866!-0.025022!0.000930!0.029976!0.015667!-0.091747!-0.028646!-0.098145!-0.088454!-0.133789!-0.065920!-0.182502!-0.106821!-0.116033!-0.169675!-0.058223!-0.151710!-0.154077!-0.050615!-0.144834!-0.211650!-0.268998!-0.142616!-0.321161!-0.274294!-0.237953!-0.295811!-0.150309!-0.172698!0.023161!0.122667!0.336842!0.449453!0.542104!0.744240!0.883163!1.076792!1.111188!1.042781!0.943445!0.917314!0.673195!0.526357!0.448998!0.241603!0.180531!-0.029287!-0.084562!-0.193638!-0.291683!-0.451840!-0.391948!-0.472416!-0.314386!-0.262894!-0.198539!-0.272539!-0.199606!-0.147297!-0.217588!-0.036919!-0.219012!-0.170107!-0.108368!-0.085612!-0.142634!0.008176!-0.099274!-0.175402!-0.044874!-0.134063!-0.118846!-0.124649!-0.155333!-0.055902!-0.112477!-0.155285!-0.029302!-0.032388!-0.109200!-0.004249!-0.073705!-0.044004!-0.046013!0.010115!0.050104!0.020662!0.041132!0.038332!-0.037542!-0.050217!-0.019969!0.020953!0.128101!0.072492!0.031830!0.163116!0.164181!0.171644!0.167633!0.124170!0.103335!0.180821!0.309097!0.137669!0.265583!0.338365!0.291635!0.331769!0.344465!0.288925!0.255115!0.266069!0.336458!0.259328!0.404946!0.416233!0.361026!0.332127!0.305825!0.377432!0.351748!0.433595!0.302600!0.419957!0.389494!0.440434!0.394856!0.266149!0.407169!0.235734!0.211508!0.260534!0.265769!0.230412!0.289259!0.197289!0.327900!0.250454!0.234314!0.243620!0.084484!0.104158!0.142522!0.198946!0.210827!0.119241!-0.011705!0.151714!0.115567!0.047872!0.085730!0.046239!-0.001709!-0.046404!-0.063446!-0.048395!-0.049534!-0.046519!-0.031885!0.040906!-0.123008!-0.115406!-0.062102!-0.097528!0.022858!0.008866!0.028438!-0.132967!-0.010039!-0.052871!-0.130184!-0.020067!-0.092831!-0.154395!-0.066901!-0.155828!-0.138095!-0.088272!-0.083889!-0.143044!-0.157504!-0.046116!0.017178!-0.048963!-0.134598!-0.013701!-0.104128!-0.038482!-0.048247!-0.171387!-0.116083!0.006321!-0.042334!-0.112760!-0.056167!-0.097384!-0.136881!-0.161593!0.027415!-0.051265!-0.043802!-0.110611!0.014645!-0.076996!-0.115642!-0.154675!-0.138184!-0.062282!-0.020771!-0.095533!-0.156772!-0.028384!-0.119751!-0.052878!0.029157!-0.061814!0.019058!-0.069335!0.024592!-0.077843!-0.124866!-0.064698!-0.071791!0.047495!0.047681!-0.085964!0.039697!0.014001!0.042370!-0.020465!-0.069961!-0.060856!0.002019!-0.014405!-0.025486!0.023545!-0.109208!-0.084365!-0.061886!-0.115261!0.013000!-0.068548!-0.013383!0.047402!-0.071670!0.021062!-0.029608!-0.039289!0.046381!-0.010748!-0.016386!0.065049!-0.075883!-0.071398!-0.063521!0.047644!0.120547!0.051216!0.026359!-0.044990!0.143619!0.171715!0.188075!0.188140!0.054590!0.145449!0.148116!0.236134!0.151938!0.273540!0.229968!0.274655!0.278932!0.338563!0.312012!0.254074!0.321560!0.367533!0.226684!0.358833!0.240735!0.206264!0.251131!0.308931!0.331044!0.237646!0.200478!0.267010!0.136922!0.179973!0.185968!0.226171!0.174014!0.063767!0.197719!0.117390!0.115708!0.048156!0.027704!-0.041547!0.030606!0.098975!0.057989!0.120107!0.035730!0.014821!-0.078437!0.036345!-0.016557!-0.047169!0.053355!0.075558!0.005878!-0.019442!0.068199!-0.114630!-0.073384!-0.158858!-0.176896!-0.079737!-0.127459!-0.137116!-0.209671!-0.140419!-0.149240!-0.114441!-0.094190!-0.065362!0.076346!0.237872!0.280281!0.481416!0.692596!0.792844!0.875070!1.064775!1.153103!1.240915!1.162707!1.158217!0.904447!0.740359!0.616087!0.523206!0.243805!0.037259!0.032325!-0.051679!-0.275990!-0.234498!-0.296229!-0.234968!-0.337194!-0.311634!-0.294715!-0.273513!-0.072045!-0.092889!-0.037988!-0.067249!0.008756!-0.089037!0.007720!0.045976!-0.101668!0.077836!0.027843!-0.094636!0.081304!0.087707!-0.024477!0.015894!0.066878!-0.078069!0.083127!-0.049926!0.084790!0.090463!0.028750!0.036195!0.011151!0.128509!0.090308!0.155356!0.158424!-0.008905!0.055105!0.095988!0.015587!0.150389!0.089528!0.053734!0.231321!0.096579!0.069718!0.254564!0.230082!0.142567!0.157746!0.316037!0.167716!0.180680!0.185854!0.310509!0.275829!0.330289!0.319998!0.379459!0.393506!0.348749!0.483942!0.370947!0.449340!0.330328!0.506447!0.409099!0.532967!0.403927!0.374828!0.419363!0.425407!0.490141!0.481692!0.502155!0.389493!0.426211!0.475770!0.516049!0.430522!0.465207!0.335676!0.317412!0.459109!0.299706!0.309699!0.413433!0.377065!0.320308!0.391190!0.278484!0.313516!0.358479!0.212175!0.281890!0.272561!0.144780!0.207072!0.091680!0.202545!0.186481!0.066881!0.206464!0.050117!0.113914!0.001522!0.147646!0.094536!0.048091!0.087760!0.024830!0.144728!0.079657!-0.027957!0.093330!-0.016880!0.022887!0.039349!-0.088172!0.062839!-0.052505!-0.056597!0.059478!-0.047296!0.063362!0.095385!-0.026036!0.073977!-0.000441!-0.090661!-0.023768!-0.103949!0.072425!-0.032940!-0.105528!-0.007551!-0.018916!0.063149!-0.006854!-0.084223!0.052029!0.081165!0.065862!-0.073799!-0.088001!0.021951!-0.083735!-0.095853!-0.037223!0.027665!0.016111!0.034291!0.058990!-0.022918!-0.082514!-0.010956!0.059877!-0.035668!0.050733!-0.075466!-0.060388!0.090642!0.063860!0.062492!0.082736!0.089762!0.094433!-0.010309!-0.032751!0.063686!0.099241!-0.033138!-0.014279!-0.033352!0.007219!0.105123!-0.066133!0.022143!-0.023982!-0.054661!0.000030!-0.019156!0.027781!-0.046113!-0.039518!0.031059!0.100246!0.059022!0.096682!0.068796!0.009682!-0.054917!0.109869!0.042009!-0.010309!-0.017054!0.026130!0.095378!0.116834!0.098848!0.039718!0.037099!0.040525!0.063032!-0.003087!0.049099!0.014887!0.008619!0.033669!0.162627!0.123147!0.069657!0.158481!0.099359!0.120063!0.169685!0.087842!0.123565!0.210584!0.172653!0.221504!0.283656!0.185143!0.192287!0.271274!0.197954!0.216772!0.347357!0.218240!0.340864!0.251634!0.292502!0.329710!0.273680!0.366988!0.285093!0.224092!0.372664!0.211031!0.251320!0.240928!0.274532!0.177464!0.297963!0.224462!0.154367!0.259822!0.101208!0.263659!0.201192!0.139548!0.118198!0.065167!0.191934!0.052716!0.069859!0.077279!0.119591!0.038546!0.132036!-0.031031!0.114744!0.066534!0.019106!-0.042806!-0.069427!-0.002980!-0.076242!0.009950!-0.064295!0.069740!0.080803!-0.086345!0.003553!-0.154254!-0.085554!-0.187566!-0.102872!-0.212908!-0.237186!-0.127987!-0.183957!-0.090830!-0.051649!0.005820!0.289401!0.450507!0.516376!0.669725!0.836098!0.966661!1.186569!1.279335!1.139886!1.189958!1.054574!0.916168!0.840534!0.594809!0.361588!0.288584!0.080322!-0.051744!-0.050105!-0.279271!-0.348510!-0.285663!-0.178292!-0.203873!-0.258542!-0.254426!-0.050150!-0.041364!-0.045090!-0.099151!0.048314!-0.063635!0.065218!-0.013733!-0.074963!0.098722!0.078984!0.102815!0.045574!0.117348!0.047919!0.010040!-0.018082!0.094908!0.117722!0.125819!-0.028325!-0.021909!0.135646!0.076993!0.064749!0.090097!0.164585!0.135375!0.162131!0.098495!0.056982!0.091482!0.064712!0.049447!0.184246!0.163111!0.095864!0.157687!0.234742!0.205461!0.283816!0.264735!0.289754!0.287121!0.324839!0.293136!0.306975!0.200559!0.325536!0.397837!0.331246!0.322011!0.284410!0.458837!0.380659!0.481584!0.418670!0.413347!0.334159!0.392494!0.505205!0.391982!0.483744!0.496974!0.379454!0.508402!0.554881!0.508920!0.395232!0.384159!0.525357!0.390006!0.365780!0.405764!0.490975!0.335438!0.427307!0.425561!0.313904!0.304520!0.423247!0.258727!0.276842!0.318665!0.244150!0.290043!0.332570!0.255470!0.245538!0.140208!0.250261!0.216535!0.075142!0.084058!0.131797!0.109759!0.190955!0.140268!0.021993!-0.019147!0.114121!0.084989!0.120999!0.008478!-0.028288!0.061928!-0.011121!0.009943!-0.071312!0.086167!0.001096!-0.089857!-0.013178!-0.075026!0.046694!0.056176!-0.013003!-0.063763!0.065163!0.001052!-0.100702!-0.090431!0.008711!-0.028303!-0.132169!-0.029250!0.053876!0.000196!0.051387!0.037774!-0.026314!0.000182!0.026174!-0.004930!-0.110072!-0.114426!-0.073298!0.020252!-0.141164!-0.094455!-0.135463!-0.006275!0.028834!0.012571!-0.025850!-0.087211!0.042414!0.026673!0.045553!0.036904!0.012662!-0.018550!0.009515!-0.080274!0.004441!0.040581!-0.130794!-0.071002!-0.091708!-0.125138!-0.049481!-0.124930!0.041857!-0.048632!-0.033178!0.055630!0.021181!-0.033571!-0.074465!0.029351!-0.125994!-0.097068!-0.081200!0.008646!-0.023793!-0.012990!-0.086334!-0.103660!-0.089591!-0.119128!0.033773!0.038851!0.001400!-0.089417!-0.013326!-0.073945!-0.045501!-0.102757!-0.089447!-0.125556!-0.073634!-0.037476!-0.062045!0.036636!-0.098576!-0.107260!0.059327!0.062070!-0.067978!-0.008964!0.004596!0.027819!0.021140!0.020115!0.105756!-0.065821!-0.017530!0.068458!0.111886!0.081413!0.180823!0.200145!0.176731!0.176854!0.077127!0.230002!0.084567!0.216643!0.188942!0.114987!0.152395!0.255342!0.325805!0.272317!0.332196!0.297985!0.225142!0.219238!0.327822!0.217673!0.131058!0.135501!0.247619!0.273556!0.245840!0.162273!0.105091!0.127532!0.159604!0.156100!0.186607!0.117518!0.050824!0.048800!0.004485!0.018663!0.053228!0.064801!0.039795!0.073925!-0.052610!0.004497!0.043146!-0.001254!0.009463!-0.036102!-0.136249!-0.037914!-0.116434!-0.056691!0.025180!-0.147315!0.014286!-0.019396!-0.196326!-0.065380!-0.195217!-0.270420!-0.226314!-0.190204!-0.256790!-0.228089!-0.119282!-0.144945!-0.060216!-0.070976!0.041177!0.103277!0.242524!0.481498!0.736995!0.800186!0.910533!0.997331!1.188683!1.067759!1.117327!1.023647!0.759741!0.577344!0.449517!0.287755!0.117490!-0.112792!-0.139917!-0.246821!-0.348189!-0.240187!-0.405879!-0.390317!-0.227037!-0.236481!-0.246240!-0.220550!-0.215431!-0.104682!-0.041658!-0.116184!-0.037093!-0.068969!-0.155012!-0.090663!-0.101551!-0.114718!-0.071489!-0.047740!0.009850!-0.153312!-0.010098!-0.108287!0.004211!-0.013443!-0.113377!-0.092363!0.056589!0.020157!0.040030!-0.050508!0.016473!-0.026517!0.024444!0.036490!0.097703!0.017577!0.013571!-0.046602!0.033436!0.117566!0.047585!0.096359!0.005545!0.023992!0.211574!0.157196!0.167139!0.227010!0.122923!0.215068!0.111121!0.121509!0.298215!0.316564!0.349101!0.345994!0.205007!0.223031!0.366675!0.319277!0.384212!0.357115!0.397611!0.440192!0.391436!0.411446!0.318808!0.290994!0.428539!0.415430!0.413645!0.316671!0.451553!0.356894!0.370437!0.377957!0.380018!0.247791!0.419248!0.224504!0.256494!0.279497!0.337476!0.194934!0.150322!0.318568!0.192247!0.125389!0.248313!0.239129!0.205561!0.214181!0.160480!0.136140!0.078499!0.076094!0.057467!0.066107!0.080842!0.028953!-0.027121!-0.018197!-0.041463!-0.065674!-0.040732!-0.116532!-0.116372!0.019271!-0.046826!-0.146040!-0.045846!-0.081013!-0.011166!-0.002301!-0.125419!-0.003591!-0.050616!-0.182165!-0.129995!-0.119942!-0.009669!-0.052472!-0.098867!-0.084623!-0.194090!-0.078878!-0.207597!-0.102732!-0.016576!-0.161993!-0.149559!-0.015742!-0.083082!-0.171496!-0.101508!-0.144588!-0.205941!-0.033792!-0.164207!-0.206669!-0.185691!-0.162679!-0.136222!-0.024236!-0.204443!-0.135320!-0.174880!-0.203150!-0.034597!-0.015131!-0.092797!-0.134718!-0.025579!-0.080366!-0.113465!-0.029146!-0.170914!-0.046324!-0.023527!-0.047384!-0.042652!-0.082832!-0.024257!-0.198408!-0.157196!-0.014205!-0.074686!-0.100412!-0.077590!-0.102124!-0.078925!-0.178641!-0.153190!-0.196650!-0.034438!-0.100937!-0.096607!-0.153531!-0.161943!-0.013672!-0.008624!-0.086094!-0.071962!-0.071291!-0.137491!-0.015224!-0.190869!-0.160615!-0.085069!-0.171822!-0.184267!-0.126663!-0.005990!-0.048026!-0.059818!-0.168654!-0.137908!-0.117467!-0.097162!-0.154617!-0.029089!-0.001361!-0.022091!-0.009031!-0.004497!-0.142357!-0.020269!0.010876!-0.117450!-0.003842!0.070710!-0.073026!0.004708!0.045963!0.121729!0.155903!0.093347!0.094238!0.117472!0.217833!0.056832!0.088714!0.222778!0.222741!0.230254!0.231686!0.172569!0.110173!0.284349!0.104231!0.284890!0.165238!0.134983!0.154252!0.187098!0.148026!0.161691!0.141810!0.144671!0.181534!0.096907!0.168727!0.036993!0.009964!0.030454!0.070772!0.021357!0.029897!-0.091786!0.068348!0.030007!-0.139021!-0.138690!-0.142335!-0.100221!-0.136308!-0.161656!0.021072!-0.038828!-0.038416!-0.136478!-0.029726!-0.031464!-0.163082!-0.128115!-0.140294!-0.069536!-0.174894!-0.156809!-0.209361!-0.120302!-0.194765!-0.198189!-0.325269!-0.178421!-0.254061!-0.160587!-0.184539!-0.048298!0.090519!0.174925!0.412897!0.601789!0.842827!0.808375!0.904357!1.012662!0.987954!1.029254!0.879575!0.894156!0.653859!0.448971!0.334596!0.083158!-0.005579!-0.241655!-0.323630!-0.377204!-0.390108!-0.298724!-0.318937!-0.245848!-0.258145!-0.360261!-0.141908!-0.106577!-0.246496!-0.212436!-0.147516!-0.179417!-0.095210!-0.044962!-0.058133!-0.157848!-0.103473!-0.154576!-0.009147!0.030194!-0.039504!-0.103656!0.008938!0.028511!-0.142238!-0.005837!0.012940!-0.127659!-0.045065!0.004004!-0.111105!0.066911!-0.091087!0.032508!0.060726!0.011393!0.027733!0.109230!0.127315!-0.043981!0.014387!0.163797!0.036774!0.006756!0.076272!0.083919!0.158004!0.129246!0.176854!0.171491!0.231483!0.290289!0.181579!0.242428!0.284482!0.326556!0.319446!0.345315!0.374821!0.270124!0.262715!0.306714!0.431673!0.331525!0.365491!0.353236!0.333845!0.425947!0.431149!0.380971!0.360411!0.456125!0.318861!0.358124!0.402615!0.311803!0.357648!0.406393!0.408447!0.375120!0.296476!0.320994!0.261549!0.383579!0.262872!0.216979!0.281105!0.225453!0.266902!0.159670!0.238733!0.212484!0.175413!0.101334!0.046624!0.060111!0.175609!0.029251!-0.016969!0.130514!-0.023667!0.091850!0.076007!0.008803!-0.015339!-0.056622!0.060779!-0.001566!0.064162!0.024668!0.029590!-0.013998!-0.006363!0.051133!-0.147099!-0.107239!-0.090130!-0.109459!-0.067943!-0.128880!0.024492!-0.093867!-0.150370!0.025001!-0.117764!-0.160089!-0.150969!-0.082323!-0.048045!-0.139554!-0.079884!-0.059957!0.000986!-0.122203!-0.097192!-0.078831!0.009481!-0.111519!-0.102952!-0.022711!-0.050881!-0.003465!-0.050111!0.008681!-0.068146!-0.004962!0.038295!-0.050168!-0.067846!0.014053!-0.010117!-0.083565!0.031989!-0.019111!-0.141792!0.030357!-0.115810!-0.058132!-0.078579!-0.054224!-0.144907!-0.115180!0.007718!-0.042941!-0.006054!-0.007407!0.012586!-0.073413!-0.101373!-0.009113!-0.011081!0.047615!-0.018867!-0.030776!-0.018695!-0.079687!-0.042350!-0.014298!0.016323!-0.064725!0.053603!-0.104836!-0.062239!-0.021119!0.058867!0.005656!-0.085403!0.002592!0.008585!-0.112628!-0.103618!-0.023350!-0.001981!-0.106858!0.004673!-0.060265!-0.108191!-0.026622!-0.077700!-0.065317!0.031140!0.032171!0.013339!0.009151!-0.078882!0.100563!-0.003731!0.070370!0.112049!0.144713!0.132022!0.059542!0.158854!0.018854!0.066487!0.176696!0.179590!0.243069!0.176854!0.280411!0.140608!0.167976!0.316842!0.215913!0.199861!0.222292!0.283233!0.194286!0.321529!0.310142!0.313747!0.297123!0.244589!0.269507!0.216023!0.180673!0.302982!0.208545!0.216358!0.227696!0.232589!0.220003!0.231987!0.170716!0.161367!0.042079!0.167831!0.072673!0.149394!0.066218!-0.021220!0.114460!0.083266!0.081616!-0.029715!-0.055074!0.071354!0.087957!-0.021467!0.014764!-0.012591!-0.074391!0.061311!-0.053376!-0.020068!-0.068367!-0.121800!-0.044005!-0.181531!-0.157521!-0.028180!-0.096905!-0.243520!-0.254839!-0.104369!-0.238980!-0.152697!-0.073558!0.104206!0.240629!0.350109!0.471974!0.700319!0.829116!1.003450!1.090276!1.094916!1.083818!1.121127!1.036222!0.848175!0.757658!0.518340!0.298983!0.176396!0.124564!-0.078248!-0.212647!-0.215403!-0.227999!-0.304191!-0.167895!-0.170094!-0.126726!-0.088938!-0.236759!-0.113256!-0.032749!0.027485!-0.103859!-0.048231!-0.047266!-0.051216!0.019292!0.005835!-0.032371!0.104279!0.113323!-0.034889!-0.043162!0.018325!-0.019055!-0.013709!0.134667!0.052031!0.113823!0.013854!0.000535!0.103958!-0.008170!0.088169!0.113965!0.172038!0.149629!0.028751!0.159883!0.098786!0.099475!0.217218!0.139676!0.092989!0.140424!0.094032!0.115555!0.142885!0.250208!0.286538!0.308028!0.270873!0.185874!0.316046!0.278576!0.382571!0.419463!0.339795!0.468194!0.448194!0.420715!0.464751!0.515260!0.365235!0.425808!0.431111!0.548522!0.383936!0.530220!0.464222!0.500553!0.534706!0.562737!0.562538!0.572744!0.555150!0.452344!0.515453!0.436408!0.476903!0.373793!0.359088!0.504473!0.498251!0.476903!0.335705!0.446998!0.353610!0.405004!0.272709!0.391598!0.291898!0.268998!0.211366!0.267155!0.318579!0.200396!0.273012!0.224901!0.166654!0.136220!0.124620!0.067809!0.100458!0.061985!0.165296!0.057398!0.097613!0.035873!0.131100!-0.000050!-0.039061!0.027219!-0.028514!-0.053789!0.021258!0.103537!-0.034819!-0.050666!-0.049148!-0.047679!0.024507!0.017718!0.029686!0.003942!-0.002006!0.073140!-0.009630!0.027910!-0.016918!0.002846!-0.009020!-0.058833!-0.056551!-0.084131!0.005176!0.018299!0.021769!-0.078819!0.075442!0.044305!0.032610!0.058651!-0.005581!-0.041458!0.041440!0.080671!0.031280!0.058663!0.062999!0.046692!0.028603!-0.054533!-0.076158!0.035897!0.002448!0.105604!-0.054231!0.033521!-0.027504!-0.040837!0.109936!-0.050377!0.085824!-0.006156!-0.052378!-0.001933!0.100126!-0.000201!0.114624!0.079237!0.057908!0.111154!-0.003125!0.010332!0.070227!-0.019837!-0.004986!0.073663!0.038500!0.129090!0.006618!0.057938!0.110477!0.041473!-0.039687!0.097954!0.024875!0.022777!-0.033324!-0.017489!0.014696!0.065538!0.079357!0.011220!0.085581!-0.012211!0.069214!0.043507!0.019005!0.102619!0.090812!0.072067!0.110582!0.157156!0.028667!0.020499!0.044252!0.028247!0.040766!0.177946!0.074358!0.054334!0.093617!0.250338!0.140887!0.199334!0.306984!0.229831!0.254103!0.199702!0.243013!0.282883!0.284588!0.389085!0.355178!0.353763!0.257800!0.256626!0.298106!0.232286!0.335906!0.296770!0.405228!0.356053!0.220118!0.250470!0.295216!0.255107!0.180745!0.171664!0.149999!0.296901!0.186241!0.269203!0.100828!0.240294!0.191464!0.050271!0.164187!0.070417!0.086767!0.015597!0.104764!0.119592!-0.013024!-0.039284!0.063515!0.085953!0.093995!0.078013!0.037094!0.021959!0.113935!-0.010944!0.022708!0.016121!-0.042361!0.062574!-0.052665!0.000717!-0.100467!-0.075693!-0.155042!-0.055285!-0.070834!-0.014809!-0.085703!0.128320!0.049901!0.329829!0.352952!0.499347!0.822412!0.918482!1.047357!1.065242!1.093837!1.111144!1.073432!1.005257!0.906754!0.757232!0.497594!0.392865!0.215682!-0.053226!-0.110174!-0.238939!-0.225159!-0.352362!-0.207359!-0.224148!-0.219925!-0.265761!-0.200447!-0.025144!-0.081539!-0.057202!-0.077355!-0.053318!0.080145!0.066468!0.075412!0.098624!0.068633!0.060583!-0.077503!-0.002763!0.111666!0.028448!0.003750!0.047220!-0.050947!0.021393!0.090678!0.054900!-0.022937!-0.008811!0.146250!0.117171!0.124009!0.084212!0.119371!0.071846!0.137809!0.137077!0.024128!0.180693!0.090906!0.065342!0.231317!0.182389!0.203034!0.113854!0.150942!0.315436!0.301400!0.326471!0.292227!0.329082!0.369521!0.240925!0.358990!0.272337!0.385434!0.403133!0.358662!0.455239!0.448214!0.343478!0.400481!0.339066!0.366476!0.455952!0.410538!0.514998!0.502184!0.357594!0.511022!0.388960!0.472478!0.549979!0.350480!0.428903!0.425917!0.342390!0.416760!0.326286!0.443773!0.352602!0.364969!0.355524!0.342104!0.308004!0.417662!0.332687!0.199534!0.208243!0.233039!0.242119!0.304566!0.166829!0.210418!0.278132!0.251627!0.158894!0.183355!0.204833!0.196901!0.054521!0.134206!0.054424!0.122408!-0.039484!-0.035777!-0.012661!-0.012963!-0.020312!-0.017703!0.050295!-0.032024!0.079154!0.016973!-0.068350!0.076148!-0.001737!-0.091676!-0.057348!-0.054625!-0.012971!0.009583!-0.039095!-0.073130!0.017942!0.062285!-0.045280!-0.093923!-0.005375!-0.105492!0.002372!-0.022991!-0.081962!-0.132195!-0.090147!-0.007836!-0.088736!-0.045685!0.023484!-0.076698!-0.102031!-0.026722!-0.094435!-0.099350!-0.075942!-0.007534!-0.063209!0.027252!-0.040785!0.036220!-0.015690!0.031862!-0.130004!-0.049900!0.041653!-0.076295!-0.069257!-0.036793!-0.075944!-0.098551!-0.008556!-0.006921!-0.130097!-0.018481!-0.004161!-0.121685!0.040724!0.006144!-0.033615!0.028160!-0.124008!-0.082335!-0.087259!0.023177!-0.096131!0.035554!0.065104!-0.022394!-0.060085!0.064373!-0.006617!-0.044302!0.014597!-0.084591!0.028429!-0.041886!0.014030!-0.023824!-0.019752!0.044773!-0.089044!-0.009298!-0.087297!0.022790!0.017000!0.007498!-0.032991!-0.073662!-0.080847!-0.007431!0.038450!0.001666!-0.006169!0.084710!-0.009175!0.061684!0.000666!0.081751!0.017080!0.016037!0.134767!-0.020881!0.078765!0.157291!0.098144!0.132245!0.131296!0.077032!0.116295!0.169134!0.130770!0.234618!0.163092!0.154051!0.145075!0.295731!0.287223!0.271915!0.257601!0.153679!0.257912!0.329965!0.296545!0.199810!0.272891!0.280581!0.247100!0.135076!0.187083!0.062165!0.190043!0.123401!0.048355!-0.002168!0.009508!-0.021526!-0.024335!-0.043260!-0.029232!0.039433!-0.082498!-0.013193!-0.106592!-0.018768!-0.021415!0.030945!-0.048946!-0.012914!0.048015!-0.005576!-0.023841!-0.148329!-0.042638!-0.070525!-0.141633!-0.011490!-0.175407!-0.133606!-0.057590!-0.152922!-0.243891!-0.159261!-0.142401!-0.244906!-0.123391!-0.140079!-0.031187!0.010090!0.088410!0.122551!0.410300!0.540450!0.652701!0.858792!0.956309!1.076985!1.121268!1.153530!0.920165!0.919860!0.764855!0.555672!0.330201!0.240869!-0.034825!-0.039032!-0.155457!-0.364478!-0.307412!-0.305538!-0.379239!-0.426191!-0.248081!-0.209568!-0.286148!-0.152839!-0.145520!-0.072100!-0.074055!-0.143153!-0.109549!-0.072277!-0.040489!-0.008204!-0.047300!-0.060898!0.009985!-0.165968!-0.140730!-0.027238!-0.069444!0.007302!-0.073554!0.027817!-0.118972!-0.017527!-0.034055!-0.049540!-0.013589!0.041484!-0.103794!-0.084258!0.032556!-0.063003!0.034286!0.014848!0.085837!0.038906!0.092840!0.089257!0.005110!0.112078!0.010526!0.156041!0.115823!0.095141!0.090913!0.046489!0.113571!0.124728!0.232754!0.286525!0.127171!0.312064!0.310902!0.261326!0.191548!0.319758!0.206486!0.303720!0.213264!0.243977!0.248177!0.265404!0.307902!0.409563!0.448819!0.330961!0.441967!0.388921!0.277727!0.363591!0.281609!0.261418!0.290779!0.282694!0.346278!0.309556!0.257176!0.299697!0.247471!0.274593!0.302296!0.191313!0.169257!0.297629!0.236962!0.207515!0.191317!0.136270!0.197696!0.040356!0.090328!0.114162!0.122444!0.083093!0.037620!-0.000584!0.072490!0.073897!0.079760!0.026297!-0.055324!-0.054922!-0.047829!0.035775!-0.018181!-0.005456!-0.037414!-0.165898!-0.170477!-0.147736!-0.090438!-0.180923!-0.085146!-0.076221!-0.137844!-0.079593!-0.130053!-0.048896!-0.216905!-0.071726!-0.059287!-0.202246!-0.033689!-0.142801!-0.120118!-0.134625!-0.172503!-0.079906!-0.219879!-0.125824!-0.196468!-0.065198!-0.076073!-0.198567!-0.059141!-0.170532!-0.084034!-0.127590!-0.079573!-0.187909!-0.065084!-0.057215!-0.195261!-0.086959!-0.100834!-0.225014!-0.125559!-0.141337!-0.212774!-0.109575!-0.049452!-0.031357!-0.117116!-0.065261!-0.213487!-0.193096!-0.214497!-0.057220!-0.154385!-0.037003!-0.033655!-0.029767!-0.127073!-0.178738!-0.189243!-0.120341!-0.203036!-0.042275!-0.182543!-0.134485!-0.072817!-0.132545!-0.062262!-0.041234!-0.044890!-0.076929!-0.107629!-0.020884!-0.062052!-0.065982!-0.184880!-0.091933!-0.165713!-0.201638!-0.008228!-0.131884!-0.014830!-0.121438!-0.172562!-0.152536!-0.141556!-0.164327!-0.178819!-0.011645!-0.111222!0.002108!-0.111987!-0.089606!-0.158497!-0.094312!0.011846!-0.170789!-0.169905!-0.057524!0.000675!-0.100471!0.042744!-0.015572!0.046999!-0.109256!0.031867!-0.033551!0.073985!0.010135!-0.013298!0.043921!-0.010784!0.003193!0.093518!0.207043!0.231271!0.121035!0.142584!0.172847!0.206365!0.112049!0.154952!0.254545!0.190209!0.144534!0.200620!0.276323!0.108540!0.180561!0.195921!0.181954!0.204233!0.022573!0.013547!0.091516!0.044015!0.063085!0.081641!-0.005267!0.108680!0.030308!0.077377!0.004884!-0.121808!-0.057685!-0.056622!0.032504!-0.051065!-0.163972!-0.015819!-0.113520!-0.122456!-0.083432!-0.073933!-0.064576!-0.084974!-0.194125!-0.115976!-0.165484!-0.079646!-0.100612!-0.161497!-0.086527!-0.170998!-0.259033!-0.243369!-0.269623!-0.262635!-0.280566!-0.176159!-0.134404!-0.126124!-0.105108!0.097103!0.086311!0.219674!0.390072!0.596848!0.855325!0.959062!0.970483!1.112539!1.120940!1.018045!0.834645!0.703044!0.523045!0.460747!0.323718!0.040232!0.003525!-0.253232!-0.207310!-0.370373!-0.447447!-0.426316!-0.317521!-0.294260!-0.281403!-0.336391!-0.189375!-0.290436!-0.242488!-0.050439!-0.170674!-0.017563!-0.097061!-0.104085!-0.137725!-0.010179!-0.103277!-0.160816!-0.110551!-0.019253!-0.006369!-0.157937!-0.105071!0.001217!-0.055608!-0.008733!-0.068950!-0.100722!-0.113567!-0.081661!-0.075405!-0.041883!-0.112613!-0.026483!-0.093562!0.091390!0.101248!0.036027!0.085578!-0.000048!-0.028718!0.138292!0.045865!0.120722!0.073024!0.047472!0.150738!0.058449!0.246097!0.196169!0.141728!0.200543!0.255334!0.288938!0.246955!0.176527!0.307553!0.247731!0.390147!0.320603!0.252219!0.417781!0.256586!0.316823!0.307941!0.442515!0.449263!0.452041!0.329936!0.356862!0.386146!0.394936!0.379627!0.447792!0.315894!0.297997!0.270640!0.412711!0.405616!0.367391!0.364118!0.222321!0.388283!0.307954!0.202404!0.313815!0.269103!0.246649!0.217630!0.267456!0.154545!0.246755!0.118142!0.177932!0.027857!0.080079!0.090333!0.043372!0.126388!-0.012748!0.118913!0.095063!0.063283!-0.005268!0.081169!-0.064677!-0.066528!0.075940!-0.036723!-0.010751!0.015202!-0.002570!-0.057063!-0.027032!-0.120613!-0.027729!-0.110929!-0.059989!-0.052119!-0.022984!-0.102690!0.027828!-0.107694!-0.138019!-0.014657!-0.163217!-0.015628!-0.001931!-0.153081!-0.139570!-0.171233!-0.116815!-0.172112!-0.020734!0.003382!-0.012916!-0.118201!-0.045933!-0.159310!-0.021618!-0.100714!-0.031022!-0.102153!-0.122970!-0.032367!-0.163859!-0.012948!-0.015056!-0.050777!0.038327!-0.083735!0.011023!0.032771!-0.120871!-0.101506!-0.119815!0.031803!-0.018677!-0.084979!-0.056810!-0.053309!-0.075771!-0.063937!0.029707!-0.085761!-0.006304!0.012176!0.047315!-0.039556!-0.064946!0.023752!-0.110350!-0.047956!-0.108418!-0.098493!-0.051365!-0.041736!0.055716!-0.008808!0.055175!0.017880!0.045189!-0.130093!0.052066!-0.085403!-0.100422!0.060431!-0.038191!-0.113715!0.043466!-0.122616!0.051320!0.035835!-0.046602!0.009071!-0.052112!-0.074956!0.053562!-0.096192!0.070277!0.026699!-0.067159!0.024635!0.106595!-0.019406!0.010404!0.029097!-0.052088!0.056694!0.045960!0.004683!0.002893!0.019889!0.196354!0.130335!0.053452!0.215708!0.160664!0.262200!0.134113!0.196366!0.260561!0.312112!0.240244!0.173652!0.302053!0.190920!0.188684!0.377692!0.227537!0.341821!0.204295!0.328226!0.270901!0.201708!0.226011!0.165088!0.207688!0.190991!0.153946!0.264638!0.110562!0.246103!0.043149!0.190496!0.121470!0.108774!0.058174!0.065399!0.057500!0.109183!0.026505!0.054641!0.053592!0.026672!-0.002480!0.050487!-0.005851!-0.046057!0.058568!-0.058749!-0.034730!-0.035565!-0.021525!0.052270!0.034979!-0.003452!-0.101630!-0.101746!-0.102580!-0.075422!-0.138875!-0.186621!-0.105108!-0.230010!-0.203440!-0.039147!-0.060892!0.125108!0.202594!0.344516!0.388406!0.577088!0.851213!0.905085!0.993924!1.175890!1.176519!1.145227!1.037644!0.849664!0.752512!0.691397!0.404728!0.357673!0.149296!-0.112391!-0.070061!-0.215648!-0.138585!-0.319192!-0.329138!-0.181661!-0.120328!-0.094083!-0.087045!-0.117853!-0.161519!0.046302!-0.093910!-0.081331!0.045067!0.099271!0.064676!0.031736!-0.048487!0.051821!0.052874!0.099322!0.112609!-0.041118!-0.046676!0.048773!0.112506!-0.041556!0.110962!-0.041865!0.019551!0.009554!0.167169!-0.004308!0.127975!0.151776!0.067001!0.198339!0.172198!0.116446!0.115933!0.045856!0.130812!0.074701!0.246054!0.101987!0.137284!0.313665!0.197941!0.250297!0.345937!0.179952!0.221760!0.235669!0.371883!0.237927!0.343706!0.409304!0.427213!0.348689!0.339776!0.412965!0.330147!0.420759!0.461252!0.367729!0.497782!0.542435!0.383219!0.391795!0.454777!0.418889!0.395515!0.447349!0.551966!0.495420!0.455652!0.465763!0.427895!0.374947!0.446472!0.408214!0.436636!0.373469!0.330150!0.279346!0.290955!0.357298!0.266687!0.305918!0.389695!0.355692!0.372461!0.331487!0.185649!0.196017!0.285053!0.115900!0.248200!0.217813!0.134195!0.132552!0.052139!0.195231!0.076813!0.187005!0.059801!0.071320!0.153481!0.070177!0.068902!0.098313!0.012069!0.115292!0.146086!0.092661!0.125066!0.077589!0.060993!0.114796!0.079467!-0.043026!0.093107!0.118562!0.018486!0.106677!0.025898!0.058705!0.055125!0.110263!0.060530!0.065877!-0.026127!0.091501!-0.057873!-0.003940!0.072544!0.085198!0.020403!0.118791!0.052440!-0.060856!0.059540!0.042590!-0.004042!-0.073998!0.108959!-0.032667!-0.058195!0.033574!0.011373!0.031107!0.104859!-0.059731!-0.057829!-0.033336!0.055815!-0.007732!-0.050712!0.041252!0.015397!0.072112!0.062072!0.120995!0.042494!-0.049104!0.018260!-0.005145!0.079239!-0.026800!-0.034389!-0.019934!-0.022954!0.014938!-0.063407!0.065185!0.047763!0.121082!0.044451!-0.030828!-0.024725!0.137901!0.097697!0.021536!-0.014829!0.018719!0.027380!-0.043628!0.103845!-0.040001!0.122707!0.120278!-0.032853!-0.039196!0.034995!0.126645!0.066275!0.146760!0.068958!0.020306!0.121552!0.059358!0.093246!0.015056!-0.013443!0.002666!0.112077!0.126386!0.090179!0.156916!0.071650!0.055506!0.099627!0.097420!0.222738!0.293312!0.186848!0.126955!0.263715!0.187933!0.284470!0.286131!0.261084!0.346524!0.283114!0.329535!0.320756!0.233840!0.259691!0.373063!0.311733!0.272083!0.244391!0.300474!0.264240!0.321063!0.197236!0.183662!0.313435!0.286198!0.200223!0.304990!0.213639!0.150125!0.215527!0.193303!0.139951!0.045872!0.034413!0.042781!0.133633!0.121658!0.146033!0.093459!0.122035!0.085155!-0.021105!-0.001513!0.012201!0.009142!0.127543!-0.048532!0.075172!0.029670!0.024683!0.001135!0.063490!-0.026806!0.003153!-0.085202!-0.165800!-0.131816!-0.120551!-0.087449!-0.209310!-0.144309!0.025301!0.027247!0.106626!0.240147!0.412793!0.556186!0.667584!0.956691!1.039852!1.100591!1.096502!1.150422!1.032626!0.948521!0.952024!0.752416!0.436208!0.428592!0.193651!0.067189!-0.134730!-0.083053!-0.221968!-0.359476!-0.176166!-0.184829!-0.208672!-0.288857!-0.142306!-0.219120!-0.139131!-0.044259!-0.139992!-0.095933!0.031521!0.001933!-0.058496!0.090312!-0.047235!-0.017355!-0.054216!-0.009923!0.065395!-0.074016!0.034346!-0.031760!0.110936!0.033912!-0.035052!0.103264!0.091456!0.014247!0.074543!0.077720!0.082883!0.086396!-0.020352!0.058329!0.177268!0.128593!0.191598!0.191753!0.166026!0.123169!0.208249!0.227938!0.105940!0.151702!0.207029!0.143906!0.213544!0.170854!0.266495!0.318595!0.307780!0.203016!0.342770!0.351787!0.243982!0.399577!0.267002!0.452278!0.426269!0.314132!0.373643!0.344317!0.373305!0.527459!0.534143!0.506865!0.534436!0.489383!0.483587!0.454709!0.553019!0.497456!0.425342!0.360733!0.485566!0.434830!0.428433!0.477558!0.471263!0.482395!0.378162!0.303967!0.290045!0.359710!0.420490!0.396043!0.306020!0.237514!0.209190!0.301732!0.176367!0.206148!0.171996!0.170784!0.233042!0.063321!0.089725!0.211066!0.184568!0.170127!0.023000!0.041698!0.117335!0.080057!0.068595!0.123794!0.034009!0.083849!0.079117!0.041727!0.025199!-0.040640!0.087774!0.074425!0.015776!-0.082921!-0.085729!-0.059477!-0.000518!-0.072909!-0.071006!0.044756!0.060657!0.033883!-0.038553!0.036239!0.002123!0.050058!-0.089485!0.042917!0.008825!-0.010824!-0.097985!0.020886!-0.056483!-0.065196!-0.047735!-0.089111!-0.025140!0.051190!0.033559!0.050296!-0.039208!-0.040054!-0.030756!0.028205!0.026298!-0.115752!-0.090736!-0.073980!0.005152!-0.004649!-0.075323!-0.068533!-0.074498!-0.047089!0.033984!0.050621!-0.027140!0.049072!0.026784!-0.085438!-0.072022!-0.105902!0.053806!-0.056924!0.034120!0.045170!0.018591!-0.069752!-0.124776!0.014163!-0.019414!-0.025437!-0.001363!-0.012889!0.010271!0.007237!-0.070542!-0.086355!-0.091070!0.048924!-0.048192!0.014384!-0.054916!0.004629!-0.003376!0.046497!0.011306!-0.072140!0.042205!-0.076899!0.049392!0.063708!-0.040045!0.038563!-0.063442!-0.111867!0.073053!-0.069302!0.002394!0.068071!-0.059816!-0.036634!0.052875!0.009895!-0.016119!-0.007516!0.084267!-0.039002!-0.033509!0.153667!0.156029!0.061602!0.020745!0.088932!0.167894!0.227537!0.171022!0.190860!0.156131!0.162759!0.113811!0.204326!0.316145!0.204341!0.203608!0.174098!0.271822!0.256942!0.330082!0.183001!0.300586!0.202615!0.270071!0.147546!0.268196!0.167050!0.241819!0.119616!0.171129!0.134399!0.164924!0.019079!0.004797!0.070328!0.058702!0.106623!0.039743!0.009858!-0.039390!-0.036384!0.048607!-0.019279!-0.017264!0.014294!-0.007724!0.054947!-0.008946!-0.030716!-0.001506!-0.041872!-0.001144!0.018699!-0.018678!-0.128969!-0.006891!-0.040988!-0.116350!-0.226705!-0.131262!-0.185424!-0.169580!-0.317786!-0.244303!-0.128861!-0.091711!-0.016948!-0.052063!0.009972!0.225970!0.301031!0.620956!0.631246!0.886835!0.949160!1.029152!1.168990!1.086470!0.991293!0.901618!0.671623!0.466893!0.336684!0.194985!-0.034138!-0.173498!-0.133730!-0.333317!-0.373680!-0.410367!-0.329520!-0.454091!-0.432009!-0.382977!-0.304238!-0.154105!-0.274900!-0.082197!-0.212400!-0.088945!-0.168678!-0.137487!-0.095306!-0.191245!-0.180147!-0.010606!-0.171535!-0.064842!-0.113733!0.003123!-0.044484!-0.120065!-0.093357!-0.137740!-0.016117!-0.155053!0.037625!-0.052892!-0.016225!-0.036040!-0.050703!-0.052752!-0.080425!-0.053950!0.017443!0.041835!-0.089371!-0.014854!-0.001463!-0.041836!-0.020176!0.044487!0.011296!0.052794!0.130671!0.160688!0.087868!0.037329!0.079747!0.119704!0.160103!0.152463!0.196145!0.185923!0.161846!0.202125!0.264516!0.334049!0.383239!0.332999!0.247492!0.245733!0.341692!0.256115!0.408519!0.412317!0.408853!0.410486!0.410638!0.311567!0.423370!0.344946!0.430903!0.282042!0.438209!0.272134!0.242023!0.302880!0.273647!0.273291!0.325637!0.256050!0.318686!0.302859!0.207492!0.279910!0.165035!0.134681!0.088277!0.143280!0.197327!0.179038!0.114828!0.028632!0.124977!0.025908!0.031858!0.138463!-0.067560!0.003295!0.059822!-0.038363!-0.113982!0.050341!0.043266!-0.129339!-0.004553!-0.158498!-0.153422!-0.121003!-0.047280!-0.124496!-0.185444!-0.064817!-0.088221!-0.171087!-0.104569!-0.023486!-0.025907!-0.199622!-0.066559!-0.137359!-0.146998!-0.041879!-0.120777!-0.184198!-0.171596!-0.173430!-0.210011!-0.155037!-0.084549!-0.148224!-0.182898!-0.119946!-0.218598!-0.209629!-0.155713!-0.040328!-0.212815!-0.049123!-0.129365!-0.178587!-0.169528!-0.107666!-0.199575!-0.203960!-0.204250!-0.220373!-0.214661!-0.071268!-0.080638!-0.045531!-0.186138!-0.162344!-0.177737!-0.220871!-0.201264!-0.093073!-0.150096!-0.050024!-0.125068!-0.189557!-0.155763!-0.101484!-0.039821!-0.068965!-0.074714!-0.191571!-0.062714!-0.098345!-0.018939!-0.213419!-0.049460!-0.187384!-0.026084!-0.146233!-0.093440!-0.200469!-0.054475!-0.157765!-0.205961!-0.048464!-0.056864!-0.185065!-0.186425!-0.142440!-0.131949!-0.155875!-0.201524!-0.131661!-0.095353!-0.148235!-0.201593!-0.149527!-0.079230!-0.155505!-0.164916!-0.044938!-0.029793!-0.064588!-0.148454!-0.073360!0.005971!-0.116433!-0.149973!-0.022216!0.021929!-0.083104!-0.124326!-0.108129!0.043149!-0.022666!-0.068743!-0.046205!0.056689!0.083096!0.041041!0.143374!0.097818!0.033270!0.167345!0.051423!0.215468!0.199462!0.240350!0.112158!0.163898!0.214991!0.289571!0.104052!0.153121!0.127510!0.277488!0.111439!0.097647!0.204172!0.158714!0.134879!0.204318!0.041100!0.028067!0.190021!0.100389!0.168236!-0.007538!0.130260!0.054869!-0.004128!-0.077309!-0.058372!-0.113207!-0.130015!-0.021918!0.034611!-0.016126!-0.157154!-0.000080!-0.167220!-0.018756!-0.123207!-0.012376!-0.086103!-0.097455!-0.105774!-0.131818!-0.125346!-0.132251!-0.100142!-0.211729!-0.167375!-0.085807!-0.186515!-0.127016!-0.300010!-0.292980!-0.197195!-0.208846!-0.168139!-0.278424!-0.196710!-0.053692!0.094194!0.119704!0.303328!0.480897!0.667615!0.839475!0.893155!1.054099!1.126480!1.070324!1.050677!0.963628!0.718216!0.570437!0.437914!0.201553!0.087485!0.015794!-0.126304!-0.295468!-0.403647!-0.314941!-0.315425!-0.361425!-0.241586!-0.289568!-0.252070!-0.128525!-0.213532!-0.191563!-0.051256!-0.035791!-0.027340!-0.065103!0.020444!-0.121714!-0.018538!-0.104150!-0.159343!-0.106538!0.039161!-0.080900!0.044422!-0.098757!-0.017914!-0.001139!0.002673!0.010613!-0.110139!-0.100260!-0.004898!-0.013400!0.016950!0.079352!-0.024531!-0.002869!0.079040!-0.012160!0.057236!0.114517!-0.024345!0.086683!0.139090!0.003536!0.066114!0.029392!0.085506!0.106310!0.155547!0.220427!0.168695!0.207607!0.143346!0.265208!0.232786!0.333808!0.368146!0.239093!0.354924!0.410392!0.365765!0.359177!0.344570!0.284404!0.362471!0.412073!0.365089!0.356487!0.330940!0.331684!0.335433!0.317538!0.418187!0.482362!0.480587!0.457330!0.421915!0.417596!0.424907!0.299974!0.300316!0.416669!0.277515!0.367081!0.353648!0.259415!0.342354!0.173546!0.128628!0.279167!0.165493!0.107059!0.178906!0.095029!0.168776!0.107046!0.093657!0.139144!0.167807!0.099976!0.025759!0.092272!-0.018963!-0.008693!-0.048746!-0.051866!0.072813!-0.071052!-0.069883!0.031667!0.045376!-0.065426!-0.046563!0.020356!0.043885!-0.058333!-0.117372!0.007948!-0.108263!-0.150291!-0.010076!-0.093971!-0.142194!-0.115104!-0.150714!-0.002912!-0.073552!-0.150025!0.031650!-0.102339!-0.121497!-0.039814!-0.003877!-0.027812!-0.118751!-0.025648!-0.139812!-0.021143!0.002885!0.034605!0.008059!0.019247!-0.042094!0.028496!-0.135064!-0.135320!-0.012487!-0.126572!-0.024599!0.045092!-0.086355!-0.034944!-0.087680!-0.080156!-0.020663!0.026975!-0.100855!-0.068429!-0.100507!-0.054526!-0.043378!0.011327!-0.109922!0.037840!0.053365!0.051174!-0.058501!0.019411!0.031785!0.017240!-0.056687!-0.064831!0.062335!0.028290!-0.117668!0.001917!0.028504!0.019273!-0.028944!0.023634!-0.014624!0.027821!-0.001120!0.035394!-0.015560!-0.073986!0.056091!0.049025!-0.003220!-0.109377!-0.019466!0.033542!0.063398!-0.097577!-0.011249!-0.107333!-0.068663!-0.030809!0.042771!0.029032!0.101350!-0.012434!-0.060168!0.095455!0.086501!0.106383!0.109698!0.150414!0.028854!0.024513!0.025175!0.004474!0.067012!0.081188!0.225934!0.154505!0.272570!0.093501!0.280547!0.211310!0.161731!0.273296!0.224558!0.184341!0.243401!0.311017!0.212439!0.330930!0.284299!0.276961!0.293250!0.301220!0.218392!0.254623!0.316794!0.270870!0.222242!0.256615!0.109812!0.168422!0.208906!0.225329!0.051406!0.077926!0.029229!0.091633!0.132419!0.102724!0.083959!-0.011168!0.027721!0.126886!-0.043130!0.036632!-0.070021!-0.043933!0.015797!-0.003619!0.095028!0.028079!-0.020462!-0.089065!0.002068!-0.009142!0.054009!0.007135!-0.038649!-0.008189!-0.181920!-0.113536!-0.183758!-0.069287!-0.173979!-0.239165!-0.165019!-0.008537!0.098820!0.169500!0.209106!0.459491!0.509690!0.740638!0.854976!1.056077!1.155014!1.173681!1.187472!1.162198!0.964746!0.766781!0.677315!0.527793!0.381946!0.205427!-0.024819!-0.194392!-0.167065!-0.200399!-0.302489!-0.230861!-0.187192!-0.186021!-0.151401!-0.185012!-0.048240!-0.115153!0.045424!-0.041392!-0.020203!-0.026893!-0.034619!0.106064!-0.017518!-0.025906!-0.065338!-0.013632!-0.047604!0.081005!-0.012683!0.105673!0.092446!-0.005113!0.085907!-0.029397!0.099115!0.089271!0.142615!0.044638!0.010201!0.019656!0.078732!0.065584!0.071147!0.034403!0.126986!0.042742!0.146955!0.062432!0.142382!0.194921!0.277647!0.106744!0.179201!0.262128!0.210596!0.226649!0.330338!0.233456!0.215182!0.404724!0.243856!0.258627!0.365355!0.470012!0.297701!0.391535!0.471575!0.491408!0.371393!0.426983!0.533331!0.439556!0.484792!0.437756!0.431685!0.451260!0.507135!0.469908!0.512357!0.473395!0.450343!0.442857!0.552728!0.386233!0.440615!0.528551!0.510219!0.315957!0.305096!0.375706!0.285389!0.432244!0.411106!0.327934!0.347432!0.252948!0.321765!0.224530!0.327973!0.228373!0.305992!0.294926!0.276439!0.187428!0.195733!0.079947!0.049028!0.133511!0.105113!0.213340!0.204403!0.054859!0.088917!0.148442!0.087749!0.068593!-0.034922!-0.043018!0.084200!0.115831!0.112473!0.088891!-0.019387!0.036319!0.032373!0.051908!0.026131!-0.013488!-0.071515!-0.069544!0.019740!-0.069669!0.092773!-0.014509!0.003006!-0.081271!0.000031!0.056868!0.003691!-0.037212!0.093653!0.089344!-0.016628!-0.004122!-0.032836!0.107503!-0.046071!0.046906!-0.050063!-0.046246!0.095462!-0.036942!0.116266!-0.002497!-0.073895!0.096864!0.095813!0.034903!0.022417!-0.055250!0.004165!0.033418!0.123354!0.017387!0.092517!0.109820!0.097084!0.029558!0.085504!-0.064857!0.002637!-0.023749!0.059774!0.000546!-0.025255!0.107745!0.079165!0.002140!0.125690!0.054924!0.023813!-0.021254!-0.024012!-0.059224!0.108434!-0.004426!0.020291!0.083741!0.110996!0.030373!0.084463!0.120006!0.069176!0.140863!-0.021034!0.070557!0.082709!-0.019739!-0.022305!-0.022315!-0.030726!0.136035!0.125378!0.028673!-0.021377!0.030105!-0.018894!-0.010227!0.122027!0.065601!0.094380!0.052198!0.151633!0.190286!0.062407!0.117668!0.131233!0.168251!0.112331!0.174655!0.106965!0.303903!0.222042!0.297744!0.184820!0.195079!0.347296!0.386668!0.257646!0.310395!0.267662!0.252021!0.250268!0.432058!0.319976!0.278911!0.368262!0.291938!0.322796!0.349565!0.323887!0.357556!0.305889!0.174016!0.224100!0.168305!0.266121!0.211411!0.201698!0.073722!0.159366!0.097566!0.094765!0.041725!0.160035!0.174543!0.158491!0.091568!0.050586!-0.037447!-0.033473!0.057014!0.046215!-0.050775!0.035659!-0.053891!0.091863!0.019769!0.117815!0.027135!0.072465!-0.007164!-0.048879!-0.049281!-0.003448!-0.208226!-0.167947!-0.214395!-0.087614!-0.067670!-0.121856!0.072698!0.066585!0.301677!0.358938!0.548247!0.719718!0.978220!0.986046!1.198804!1.193525!1.185318!1.134647!0.920999!0.829022!0.637801!0.409278!0.263322!0.198300!0.030901!-0.138082!-0.221585!-0.255455!-0.310969!-0.249272!-0.289646!-0.354566!-0.137694!-0.282633!-0.180634!-0.076887!-0.056053!-0.167600!-0.041234!-0.055498!-0.063202!-0.021052!0.086283!0.081233!0.055987!0.088302!-0.035249!0.075381!-0.024530!-0.059968!-0.043769!0.024353!0.004955!0.060576!0.082679!0.080281!-0.002971!-0.040206!-0.033488!0.013468!0.045903!0.052571!0.046134!-0.014878!0.129074!0.085336!0.178873!0.113083!0.057394!0.160578!0.090593!0.218567!0.113543!0.198928!0.187436!0.239944!0.208289!0.169550!0.220872!0.208495!0.234805!0.319906!0.340814!0.328103!0.237049!0.285161!0.278723!0.424077!0.436223!0.420937!0.380810!0.378856!0.338286!0.341115!0.367773!0.519275!0.495055!0.513058!0.544605!0.495784!0.355917!0.347796!0.502326!0.472974!0.514772!0.491356!0.430906!0.459524!0.467452!0.363772!0.297083!0.349492!0.291420!0.257770!0.233085!0.304662!0.265843!0.207766!0.319590!0.143746!0.230143!0.168772!0.157830!0.211596!0.157596!0.176111!0.114716!0.078842!0.039210!0.100523!0.088759!0.083501!0.056125!0.080265!0.018820!-0.025916!-0.068076!0.096017!-0.081124!-0.039868!-0.092223!-0.091703!0.075629!-0.014932!0.045655!-0.005975!0.020070!-0.118004!-0.057684!0.053494!-0.138163!-0.120383!-0.141401!-0.104283!-0.123229!0.000535!-0.143143!-0.111328!0.040913!-0.100898!-0.077993!-0.143542!-0.114885!0.012341!-0.033305!-0.010376!-0.129161!0.039722!-0.023243!0.020764!-0.108762!-0.034301!-0.072379!-0.079920!0.022843!0.012150!-0.047491!0.003467!-0.136977!-0.087257!-0.047677!-0.066659!-0.135699!-0.032745!-0.026149!-0.038765!-0.067783!-0.018878!-0.116143!0.027141!0.043432!0.035013!-0.089449!-0.137689!-0.150499!-0.009843!0.027296!-0.026402!-0.098173!-0.114062!0.044508!-0.069841!-0.027540!0.033440!-0.025164!-0.120737!-0.105027!0.036429!-0.052728!-0.054068!-0.044247!0.028632!-0.054274!-0.136177!0.002356!-0.053885!-0.116554!-0.091319!-0.094878!-0.091016!0.039160!-0.066884!-0.064614!-0.054318!-0.084205!0.026368!-0.033627!-0.032963!-0.125946!-0.069514!-0.071057!0.033047!-0.071244!-0.061578!0.035766!0.001027!-0.093775!0.041991!-0.030685!-0.037800!-0.035211!0.096196!0.050731!-0.004203!0.015967!0.152598!0.090466!0.163331!0.197084!0.170841!0.143686!0.141844!0.172015!0.199915!0.263401!0.212327!0.160222!0.224898!0.140721!0.144176!0.258485!0.182386!0.260797!0.155929!0.177663!0.289932!0.296200!0.125513!0.125569!0.262694!0.240945!0.244812!0.171480!0.163483!0.188604!0.130001!0.066836!0.075013!0.086145!-0.047374!0.081137!0.003353!0.033221!0.065571!0.016429!-0.127827!-0.076078!-0.032940!-0.023673!-0.044384!-0.150501!-0.050437!-0.156718!0.001184!-0.016393!-0.076741!-0.022530!-0.068361!-0.130400!-0.134573!-0.190675!-0.171065!-0.094667!-0.281682!-0.120555!-0.327439!-0.243570!-0.263365!-0.185103!-0.174152!-0.049163!-0.030652!0.103375!0.193660!0.374164!0.447783!0.668729!0.747076!1.048087!1.027132!1.173847!1.190270!0.993846!0.992232!0.690249!0.686361!0.399413!0.214298!0.169692!-0.048414!-0.219095!-0.175812!-0.268410!-0.449600!-0.288448!-0.457779!-0.355910!-0.409931!-0.377548!-0.245837!-0.137888!-0.277474!-0.087317!-0.144232!-0.158888!-0.051279!-0.018632!-0.072591!-0.003163!-0.094885!-0.013026!-0.083143!-0.026306!-0.013753!-0.021797!-0.027632!-0.004622!-0.172200!0.020942!0.003508!-0.038931!-0.023169!0.029669!-0.068872!0.032158!0.052200!-0.050125!-0.081785!0.001233!0.002592!-0.106975!0.006935!0.012697!0.102958!-0.036063!0.058985!-0.047907!0.124472!0.092137!0.044231!0.046862!0.033468!0.134207!0.069353!0.209457!0.079584!0.087178!0.264056!0.280318!0.162368!0.298923!0.216181!0.353999!0.356290!0.232939!0.310955!0.359478!0.383071!0.401545!0.333332!0.418620!0.378056!0.299660!0.286597!0.289354!0.415723!0.360392!0.324366!0.421107!0.396599!0.251939!0.397650!0.381747!0.360066!0.311476!0.239603!0.321881!0.209142!0.240897!0.179860!0.145340!0.258363!0.118318!0.203358!0.263481!0.079643!0.155495!0.053072!0.033493!0.156734!0.160280!0.024655!0.065610!-0.057225!-0.013419!0.094751!0.019513!0.005554!0.051714!0.034764!-0.112967!-0.140417!0.015904!-0.083633!-0.145564!-0.136744!-0.126667!-0.041269!-0.136486!-0.199937!-0.042364!-0.013967!-0.020024!-0.097996!-0.106105!-0.152532!-0.052201!-0.063809!-0.175121!-0.136730!-0.219589!-0.231732!-0.066856!-0.216115!-0.135181!-0.069478!-0.106186!-0.112973!-0.101958!-0.071302!-0.149415!-0.226094!-0.192541!-0.060092!-0.123128!-0.197128!-0.219641!-0.196843!-0.041259!-0.158028!-0.087015!-0.208357!-0.110055!-0.184395!-0.075175!-0.169237!-0.171766!-0.052653!-0.163783!-0.202747!-0.122965!-0.185498!-0.046575!-0.142753!-0.129502!-0.210269!-0.033420!-0.129646!-0.190688!-0.212725!-0.062615!-0.221223!-0.183527!-0.080310!-0.121713!-0.056750!-0.187723!-0.051678!-0.160444!-0.103177!-0.024955!-0.047115!-0.074324!-0.083808!-0.058011!-0.056521!-0.147053!-0.212299!-0.105021!-0.168346!-0.142732!-0.130477!-0.087529!-0.044609!-0.039145!-0.023166!-0.033798!-0.188031!-0.067252!-0.081061!-0.194989!-0.052482!-0.143800!-0.133775!-0.179208!-0.150159!-0.120733!-0.001396!-0.127176!-0.078673!-0.032099!-0.071279!-0.118551!-0.073682!-0.030448!0.034190!0.033806!0.031100!0.024729!-0.090859!0.026636!0.026176!0.006595!0.079076!0.140635!-0.024529!0.032713!0.106151!0.162014!0.067305!0.134547!0.090705!0.254327!0.129588!0.216255!0.160394!0.168763!0.171001!0.207455!0.161721!0.144314!0.261810!0.097493!0.247161!0.231598!0.146490!0.194864!0.179156!0.047424!0.190882!0.159187!0.088213!-0.042752!-0.025431!-0.016269!0.018973!0.038541!-0.107788!-0.052819!-0.021855!-0.078630!-0.104089!-0.049281!-0.007515!0.011575!-0.012592!-0.002530!-0.072275!-0.000942!-0.184806!-0.051310!-0.071651!-0.162327!-0.064823!-0.033831!-0.204672!-0.041861!-0.119330!-0.199204!-0.170897!-0.288618!-0.279398!-0.280139!-0.192845!-0.352600!-0.218111!-0.285813!-0.275036!-0.067273!0.007065!0.120012!0.123163!0.402532!0.518006!0.607450!0.855901!1.029022!0.983191!1.167395!1.170900!0.927102!0.872588!0.801553!0.536224!0.471798!0.150846!0.149275!-0.072139!-0.129419!-0.221302!-0.371891!-0.434213!-0.345277!-0.327173!-0.419020!-0.292217!-0.281953!-0.286109!-0.200470!-0.208178!-0.123052!-0.231105!-0.203615!-0.112642!-0.132305!-0.142962!-0.162133!-0.047629!-0.054081!-0.029057!-0.164744!-0.029545!-0.171365!-0.081612!-0.149921!-0.053746!-0.148078!0.010692!-0.018019!0.020794!0.007287!-0.152329!-0.084648!-0.085056!-0.113655!0.040380!0.073598!-0.007962!0.004707!0.010673!-0.021874!0.033411!-0.030518!0.051497!0.003517!0.058854!0.029898!0.165358!0.017865!0.060086!0.214530!0.205388!0.091591!0.150905!0.203694!0.136386!0.236225!0.222942!0.228471!0.282246!0.351743!0.363167!0.364481!0.248586!0.352914!0.275176!0.342060!0.266627!0.433941!0.378528!0.461146!0.427074!0.362215!0.407973!0.407188!0.463838!0.476363!0.393685!0.341872!0.443750!0.451949!0.401038!0.427047!0.367772!0.409571!0.238261!0.301735!0.281742!0.263446!0.306561!0.243264!0.160157!0.248506!0.260955!0.212679!0.157413!0.106264!0.156932!0.087306!0.175217!0.062326!0.094678!0.151010!-0.031482!0.080832!0.075107!0.112448!0.103850!0.065893!0.066420!-0.081356!-0.057398!0.024424!-0.130105!-0.135619!0.050167!-0.110304!-0.025782!-0.072298!-0.112687!-0.112013!0.012884!-0.003147!-0.158992!-0.153742!-0.047498!-0.100510!-0.082649!-0.184679!-0.029826!-0.184521!-0.051171!-0.008006!0.004567!-0.140954!-0.111097!-0.071870!-0.023709!-0.010666!-0.153375!-0.076037!-0.178427!-0.064784!-0.005059!-0.086015!-0.128933!-0.143947!-0.005954!0.004640!-0.134412!0.012052!-0.069143!-0.007301!0.019191!0.024252!-0.098906!-0.066763!-0.040510!-0.139401!-0.151640!-0.118931!-0.139920!-0.023144!-0.163086!-0.041313!0.030641!-0.046046!-0.061504!-0.130874!-0.028177!-0.018138!-0.042638!-0.038392!-0.152864!-0.006800!-0.022269!-0.153288!-0.024369!-0.124594!-0.022080!-0.085318!-0.021744!-0.027886!0.012669!0.028681!-0.002705!-0.035781!-0.007050!-0.035325!-0.062732!-0.110496!-0.096940!-0.117108!-0.101049!-0.127592!0.039091!0.008075!-0.112555!-0.097030!-0.055237!0.011913!-0.057150!-0.073400!-0.107597!0.032616!-0.022010!-0.000886!-0.108810!-0.030500!0.057553!-0.026574!-0.017604!-0.037398!-0.038992!0.097749!-0.064120!0.084561!0.006368!0.080598!0.125447!0.173080!0.047556!0.093411!0.029992!0.133774!0.181182!0.198845!0.186058!0.180982!0.227451!0.242853!0.290882!0.175461!0.295761!0.339091!0.232629!0.333959!0.279137!0.217890!0.336550!0.372059!0.222395!0.178209!0.181409!0.309772!0.215939!0.239721!0.141165!0.198751!0.271967!0.248143!0.136445!0.129220!0.088137!0.029932!0.082980!0.047217!0.170110!0.048537!0.032094!0.021806!-0.032634!0.011222!0.023244!-0.027509!0.041733!0.031570!0.045485!-0.048546!-0.003629!-0.039727!0.022774!0.086512!0.042186!-0.041266!-0.036618!-0.028679!-0.019438!-0.014160!-0.110728!-0.076347!-0.181895!-0.230900!-0.270360!-0.271110!-0.200065!-0.084851!-0.113060!-0.103576!0.021142!0.098676!0.378444!0.455991!0.552535!0.886023!1.041722!1.030212!1.231153!