0.887965!0.907093!0.852869!0.466068!0.243966!0.028432!-0.079100!-0.261041!-0.407287!-0.392038!-0.363713!-0.323611!-0.263052!-0.190098!-0.153962!-0.181291!-0.221536!-0.126586!-0.042583!-0.101157!-0.139036!-0.080440!-0.086567!-0.130654!0.033947!0.044158!0.024317!0.025837!0.047434!0.028905!-0.053812!0.117544!0.007380!0.170767!0.083557!0.138821!0.163906!0.062731!0.080374!0.146704!0.124817!0.254243!0.213968!0.272597!0.174112!0.200251!0.345246!0.212804!0.311085!0.246009!0.364029!0.328580!0.384144!0.362405!0.322734!0.302071!0.362305!0.265343!0.231150!0.247800!0.258446!0.106400!0.078074!0.232605!0.181011!0.139966!0.011537!-0.029875!-0.046006!0.077124!-0.036427!0.018457!0.029901!-0.019535!-0.043212!-0.000191!-0.084979!-0.139416!-0.172761!0.007498!-0.041811!-0.098580!-0.048868!-0.139505!-0.143334!-0.144359!0.021819!-0.047084!-0.104337!-0.110052!-0.145903!-0.023725!0.010280!-0.158334!-0.022299!-0.119617!-0.035389!0.007819!-0.104969!-0.028849!-0.105152!-0.082925!0.037262!0.017209!0.036082!0.026383!0.003435!0.133663!0.016509!0.068158!0.086924!0.256925!0.229385!0.133168!0.175721!0.256569!0.211993!0.125700!0.183625!0.263741!0.177968!0.229323!0.149345!0.182372!0.206964!0.161114!0.077776!0.053470!-0.052173!0.101375!0.001144!0.043830!-0.039705!0.030888!-0.019474!-0.049427!-0.054820!-0.175019!-0.095119!-0.169313!-0.154405!-0.249047!-0.223970!-0.144364!-0.018684!0.066084!0.258822!0.457136!0.618814!0.764989!1.068528!1.146467!1.070730!0.907927!0.653119!0.420362!0.351948!0.129134!-0.059065!-0.345843!-0.317810!-0.322390!-0.276067!-0.316309!-0.200107!-0.193738!-0.107315!-0.150943!-0.022314!-0.062064!-0.077393!-0.109817!-0.001319!-0.027647!-0.103298!0.002135!-0.088957!-0.074361!0.053865!0.091248!0.010603!0.133798!0.045349!0.148247!0.062100!0.157867!0.114108!0.193591!0.212977!0.238104!0.315070!0.327034!0.310597!0.393505!0.354239!0.255831!0.265531!0.420666!0.355808!0.324911!0.432852!0.397021!0.415997!0.309660!0.399990!0.376862!0.445072!0.246485!0.249360!0.347187!0.291903!0.252217!0.261975!0.191591!0.183745!0.118446!0.262016!0.174890!0.067554!0.121786!0.100624!0.071238!0.048353!0.042662!0.089106!0.014280!-0.087297!-0.048878!-0.006157!0.021841!-0.046759!-0.036152!-0.078859!0.052859!-0.006290!0.020992!0.011016!0.039265!0.005838!-0.068335!-0.021212!-0.054576!-0.088055!-0.047662!-0.041735!-0.052542!0.080000!0.038968!0.064780!0.035213!0.011635!0.042803!0.020465!0.093825!0.164198!0.121937!0.134970!0.174715!0.164101!0.244582!0.216573!0.159743!0.149477!0.328885!0.166851!0.244914!0.296667!0.284633!0.298079!0.284059!0.333098!0.313209!0.365770!0.346149!0.226336!0.131196!0.272292!0.116802!0.247731!0.220441!0.095183!0.005832!0.114724!0.127984!0.147629!0.054892!0.061463!-0.040304!-0.004196!-0.003990!-0.090536!-0.077430!-0.195477!-0.233105!-0.134551!-0.151929!-0.115310!-0.032667!0.207699!0.458135!0.585279!0.789575!0.938804!1.112936!1.067120!1.005999!0.883125!0.543731!0.382632!0.108580!-0.112445!-0.095572!-0.316584!-0.229933!-0.186647!-0.302364!-0.205092!-0.007977!-0.024084!-0.063426!0.015672!-0.030482!-0.057817!-0.021759!0.026780!0.141380!0.006872!-0.012875!0.059427!0.165011!0.208130!0.064025!0.182568!0.251518!0.265617!0.105987!0.121637!0.220179!0.279554!0.188432!0.190688!0.241482!0.392434!0.278550!0.328041!0.358649!0.428594!0.395290!0.440961!0.372160!0.416816!0.427206!0.454931!0.518646!0.371259!0.391789!0.497008!0.512600!0.504504!0.503894!0.461139!0.460919!0.296879!0.443334!0.314719!0.241864!0.219512!0.279033!0.185416!0.186953!0.253327!0.279953!0.195273!0.093126!0.060429!0.025480!0.073430!0.026628!-0.017655!0.098359!0.061402!0.130519!-0.023912!0.031799!0.046395!0.027503!0.077314!0.056250!0.116321!0.104380!0.109915!0.063625!0.061392!0.068769!0.045613!0.152921!0.101887!0.144416!0.106305!0.012006!0.009181!0.054366!0.065690!0.152277!0.166984!0.118765!0.189760!0.220571!0.265612!0.216958!0.119897!0.151277!0.302790!0.231400!0.367034!0.370112!0.260130!0.408914!0.291676!0.409804!0.435247!0.281308!0.316779!0.361735!0.314213!0.225134!0.324074!0.222467!0.277295!0.291369!0.226142!0.097075!0.178908!0.239409!0.101270!0.183747!0.021588!0.105757!0.169011!0.062711!0.010466!0.015351!-0.011487!0.033410!-0.134441!-0.070530!-0.079768!-0.110860!-0.044855!0.053431!0.321421!0.556364!0.718431!0.895882!1.046842!1.088049!1.087628!1.018604!0.777207!0.491345!0.297872!0.140447!0.057504!-0.039159!-0.274998!-0.249863!-0.214799!-0.062570!0.022352!-0.124328!0.009624!0.039206!-0.009865!0.051358!0.085087!0.157264!0.140974!0.016947!0.048449!0.159170!0.125618!0.069423!0.240707!0.152236!0.269816!0.179152!0.268906!0.276704!0.278575!0.370706!0.322611!0.306747!0.348300!0.438886!0.374249!0.387118!0.435875!0.347946!0.354506!0.418852!0.522146!0.533007!0.403750!0.450960!0.432454!0.393011!0.516791!0.522734!0.529362!0.532383!0.485352!0.472952!0.482472!0.302505!0.458988!0.352633!0.406765!0.387406!0.375019!0.234548!0.176549!0.139267!0.305535!0.246035!0.245924!0.092891!0.188947!0.173411!0.094512!0.121272!0.070036!0.118033!0.133121!0.068053!0.069808!0.063770!0.147707!0.015837!0.127332!0.175355!0.153406!0.035638!0.107145!0.114676!0.103548!0.063685!0.027233!0.052083!0.135076!0.112825!0.070936!0.181969!0.096462!0.069591!0.052578!0.070049!0.112656!0.238352!0.220185!0.293242!0.313363!0.229606!0.265963!0.194083!0.375380!0.282897!0.332437!0.366537!0.374818!0.322381!0.407423!0.418153!0.454727!0.344210!0.340846!0.354625!0.217677!0.203232!0.246330!0.203433!0.291076!0.203124!0.200348!0.104181!0.200974!0.086113!0.158081!0.131957!0.095810!0.115817!0.129787!0.099052!0.029127!0.001541!-0.031061!-0.058531!-0.119173!-0.039052!0.030252!0.088198!0.405263!0.484366!0.724831!1.056021!1.198641!1.119035!1.037261!0.873117!0.676379!0.456760!0.169681!0.126703!-0.113473!-0.195061!-0.233669!-0.174324!-0.154986!-0.053510!0.039194!-0.083028!0.087346!-0.038939!0.166367!0.083583!0.024295!0.008514!0.059967!0.025255!0.182251!0.072113!0.125941!0.076752!0.230059!0.154867!0.281691!0.155601!0.244447!0.183997!0.212836!0.320814!0.400959!0.377652!0.443665!0.388085!0.400759!0.459486!0.392730!0.489065!0.403976!0.466299!0.548716!0.498134!0.398631!0.412101!0.411365!0.533359!0.422216!0.375219!0.516756!0.362525!0.488791!0.424201!0.388859!0.290694!0.271290!0.326778!0.382634!0.206164!0.304388!0.171200!0.265369!0.196767!0.187522!0.243102!0.056971!0.204547!0.095103!0.030624!0.124514!0.034892!0.062823!0.064010!0.139701!0.120785!0.003404!0.130852!0.082482!0.125773!0.047057!0.176192!0.081273!0.132812!-0.017406!0.025759!0.120828!0.066163!0.078789!0.020050!0.034394!0.003728!0.178968!0.057262!0.207215!0.198945!0.161726!0.163262!0.170893!0.120165!0.152016!0.196308!0.221413!0.254242!0.340581!0.274891!0.329875!0.413015!0.241323!0.315013!0.352617!0.392050!0.294994!0.288944!0.249412!0.226562!0.216861!0.210507!0.192972!0.263508!0.207336!0.239666!0.146416!0.112674!0.066635!0.186852!0.003968!0.046209!-0.002985!0.071891!0.116030!-0.013669!0.067127!-0.078539!-0.002662!-0.123459!-0.196415!-0.033325!-0.061399!0.171660!0.316943!0.432919!0.651841!0.972180!1.066527!1.084159!1.056634!0.888048!0.679562!0.474726!0.184944!0.144107!-0.187340!-0.219335!-0.272807!-0.239495!-0.223859!-0.081307!-0.095369!-0.081246!0.063923!0.008741!0.121931!0.082553!0.125281!0.073887!0.047257!0.098834!0.065836!0.051065!0.155535!0.180323!0.191035!0.096204!0.218002!0.161585!0.174562!0.255187!0.320416!0.287475!0.261682!0.356565!0.245071!0.363964!0.308270!0.287473!0.412525!0.471714!0.455443!0.490759!0.390822!0.333782!0.502086!0.400618!0.479661!0.420347!0.352935!0.470651!0.368119!0.314385!0.475070!0.326102!0.441311!0.262432!0.265065!0.378681!0.341734!0.274267!0.251050!0.170004!0.217651!0.162606!0.089506!0.091080!0.039380!0.124538!0.009570!0.131793!0.016122!0.079049!0.102254!0.105613!0.123821!0.107488!0.012729!-0.022374!0.025755!0.021166!0.026647!-0.033970!0.006610!0.003980!0.015951!-0.021823!0.057463!-0.051578!0.108537!-0.007490!0.038750!-0.034288!0.080671!0.068414!-0.009760!-0.013250!0.082810!0.100559!0.160042!0.173658!0.078312!0.121520!0.138694!0.257414!0.167811!0.247064!0.197283!0.300421!0.332968!0.376835!0.348159!0.260171!0.314611!0.189013!0.184137!0.287090!0.316018!0.194136!0.129683!0.086531!0.066236!0.212624!0.097373!0.076753!0.085048!0.124396!0.046218!0.013957!-0.010917!0.083724!-0.062750!-0.002161!-0.083298!-0.088489!-0.059056!-0.130587!-0.126671!-0.030332!0.058547!0.118626!0.304300!0.421280!0.645368!0.863378!1.068432!1.105248!1.098974!0.825202!0.597061!0.362134!0.195238!0.073805!-0.070167!-0.317338!-0.357377!-0.339630!-0.196254!-0.206744!-0.061958!-0.191974!-0.108668!0.051090!-0.031282!-0.025434!-0.017302!0.095936!-0.025421!0.051018!-0.001908!0.091283!-0.044860!-0.021199!0.119046!0.048336!0.096617!0.031626!0.111970!0.084344!0.132955!0.164577!0.260602!0.213207!0.283212!0.362265!0.203518!0.297298!0.378628!0.245547!0.370927!0.433904!0.433737!0.344886!0.312616!0.390829!0.434633!0.336994!0.439733!0.419203!0.352073!0.349009!0.268017!0.413814!0.221759!0.368165!0.187570!0.298602!0.222487!0.293243!0.166211!0.102406!0.171241!0.183368!0.168487!0.036694!-0.028064!0.036647!0.125782!0.060085!0.001663!0.000069!-0.061148!-0.086350!0.012239!-0.018167!0.071264!0.006258!0.056777!0.049550!-0.049577!0.031264!-0.035306!0.058104!-0.074740!-0.004398!-0.091290!-0.097864!-0.028424!0.021187!-0.030377!-0.044383!0.090150!0.034050!-0.042529!0.048847!-0.034156!0.024144!0.118540!-0.034079!0.099524!0.186380!0.075139!0.203384!0.084197!0.234768!0.126072!0.116929!0.175141!0.287160!0.326472!0.207121!0.151246!0.280290!0.330558!0.174892!0.185049!0.244769!0.151373!0.125995!0.190856!0.163588!0.005048!0.029837!0.122722!-0.058192!0.072435!0.038056!0.021029!-0.076909!0.020369!-0.086145!0.020041!-0.173693!-0.132001!-0.252397!-0.185282!-0.165051!-0.246438!-0.100255!0.030115!0.103731!0.462102!0.626192!0.863204!1.033445!1.044599!0.939607!0.869386!0.609861!0.477704!0.189290!0.007063!-0.144529!-0.181564!-0.395939!-0.291011!-0.376751!-0.314000!-0.175404!-0.236223!-0.088344!-0.152630!-0.065192!0.041139!-0.093232!0.055928!0.012304!0.029390!-0.046187!-0.024953!0.077364!-0.062154!0.013179!0.101543!0.062499!0.004565!0.023198!0.071996!0.095271!0.127272!0.141770!0.187775!0.290576!0.129760!0.250920!0.262235!0.257062!0.196757!0.406024!0.403062!0.381037!0.327853!0.261439!0.428065!0.421028!0.364635!0.301902!0.444565!0.275198!0.367078!0.308188!0.218544!0.307848!0.239514!0.351803!0.296258!0.129142!0.135176!0.198914!0.178941!0.195616!0.068426!0.105270!0.091690!0.029942!0.121856!-0.034229!0.030696!-0.074689!0.030819!-0.075516!-0.014352!-0.124426!-0.112470!-0.095535!-0.024223!-0.025755!-0.034919!-0.103537!-0.068334!-0.125078!-0.118670!-0.125372!-0.019191!-0.024799!-0.013155!-0.080109!0.022619!0.028773!-0.014500!0.047261!-0.074342!-0.025976!-0.080727!0.041360!0.090439!-0.045665!0.025030!0.148721!0.078348!0.088521!0.158561!0.199650!0.064068!0.189237!0.147701!0.141874!0.114517!0.128426!0.240620!0.213758!0.197955!0.310258!0.194236!0.284414!0.136958!0.244655!0.257399!0.150004!0.243604!0.139131!0.084110!0.121617!0.005746!-0.015011!0.095256!0.057684!-0.078048!0.025258!-0.018947!-0.103300!-0.146788!-0.103971!-0.200924!-0.132839!-0.264755!-0.163606!-0.278555!-0.250689!-0.003286!0.024598!0.101779!0.427635!0.575058!0.813526!0.958092!1.000384!0.968768!0.830849!0.777851!0.469633!0.261543!-0.001658!-0.190561!-0.234058!-0.231405!-0.329297!-0.235424!-0.237144!-0.167745!-0.234296!-0.156167!-0.047640!-0.010611!-0.035900!0.010929!-0.032132!-0.107842!-0.098173!0.032991!0.082974!0.019197!0.017973!0.103836!0.037301!0.069174!0.023101!0.117962!0.034367!0.178879!0.250046!0.213561!0.123937!0.151721!0.199323!0.345371!0.340433!0.311834!0.326403!0.339869!0.431338!0.387434!0.330795!0.281715!0.474945!0.377030!0.403732!0.428501!0.283128!0.440858!0.391990!0.455373!0.254572!0.293494!0.410005!0.351364!0.321118!0.304615!0.158676!0.291663!0.269344!0.087376!0.209713!0.054818!0.169475!0.152762!-0.014558!0.042668!-0.014585!0.050931!0.049319!0.005836!-0.054439!-0.060492!-0.056512!-0.020740!-0.045951!-0.089623!-0.065333!-0.069424!-0.087993!0.024142!-0.058067!0.086754!-0.072773!-0.021593!-0.018909!0.019250!-0.013565!0.084286!-0.092271!0.044075!0.100472!0.044685!0.038281!0.032641!0.016014!0.123203!0.084138!0.115018!0.181154!0.052780!0.170893!0.084378!0.152627!0.152001!0.237518!0.318831!0.273495!0.182748!0.259300!0.180765!0.254507!0.249624!0.366068!0.238169!0.291801!0.298029!0.178413!0.195315!0.122415!0.104352!0.194640!0.179605!0.098625!0.000716!0.052182!0.082408!0.060319!-0.013504!0.123985!-0.037892!-0.008943!0.003013!0.047838!-0.015591!-0.117598!-0.208417!-0.256961!-0.143124!-0.172481!-0.052334!0.004342!0.339105!0.467022!0.707129!0.830444!1.122642!1.118468!1.109338!0.961383!0.746792!0.521993!0.195797!0.117679!-0.168665!-0.178595!-0.291187!-0.226621!-0.219850!-0.225910!-0.214525!-0.144932!-0.061428!-0.077733!-0.091690!0.016797!0.106767!0.022693!0.033610!0.026172!0.154234!-0.020706!0.135707!0.066703!0.124762!0.127403!0.139800!0.110791!0.243894!0.122321!0.142865!0.268291!0.172485!0.316759!0.187267!0.285092!0.250885!0.340306!0.291658!0.353669!0.475965!0.360738!0.343136!0.506852!0.516737!0.372512!0.347704!0.417462!0.490890!0.436140!0.427321!0.450499!0.338667!0.435688!0.392446!0.429633!0.403775!0.231219!0.296044!0.245582!0.174189!0.306348!0.259994!0.198308!0.128478!0.124889!0.154060!0.080114!0.063534!0.148078!0.035314!-0.027165!0.050299!-0.006531!0.120529!0.077922!-0.022735!0.108012!0.064246!-0.024853!0.067351!0.008256!0.137818!0.026604!-0.040845!0.135543!-0.012345!0.039457!0.026954!0.060232!-0.033786!0.007467!0.104147!0.108128!0.077977!-0.012617!0.132605!0.019503!0.055306!0.130487!0.161997!0.140840!0.180122!0.272427!0.124860!0.165883!0.305486!0.296714!0.216035!0.328878!0.235924!0.382716!0.392878!0.293457!0.351802!0.417522!0.291977!0.325610!0.345992!0.342696!0.341858!0.317415!0.278878!0.292614!0.272485!0.119182!0.220284!0.055679!0.170280!0.012841!-0.011487!0.036316!0.005479!0.030173!-0.034534!-0.105989!0.013809!-0.008240!-0.193686!-0.057383!-0.019856!0.079414!0.038660!0.345567!0.544614!0.742801!0.911063!0.983675!1.072082!1.087587!1.027025!0.748768!0.643079!0.425196!0.144377!-0.039301!-0.114864!-0.173131!-0.282283!-0.136493!-0.089826!-0.190157!0.002163!-0.029074!0.009456!0.021060!0.026911!0.064154!-0.015273!0.070315!0.102378!0.173725!0.068084!0.030843!0.096909!0.063864!0.082296!0.101104!0.222928!0.251629!0.195028!0.336996!0.173885!0.226451!0.371215!0.401237!0.412877!0.435147!0.484428!0.367714!0.367907!0.435308!0.491510!0.446858!0.399847!0.485104!0.567151!0.407840!0.431684!0.566145!0.384252!0.511220!0.396123!0.466930!0.509122!0.487172!0.378899!0.409586!0.325256!0.342193!0.328841!0.236382!0.281035!0.331330!0.275414!0.202060!0.131066!0.165813!0.110960!0.116065!0.204222!0.132194!0.042948!0.027256!0.151025!0.127984!0.140642!0.195553!0.083812!0.048252!0.033641!0.029092!0.027489!0.123042!0.195581!0.038349!0.014865!0.143944!0.027993!0.059207!0.011011!0.027090!0.089971!0.193676!0.207820!0.064039!0.134501!0.069454!0.120921!0.181775!0.121389!0.166969!0.273054!0.136772!0.343482!0.333252!0.249006!0.323260!0.324541!0.323158!0.256782!0.332063!0.346790!0.420104!0.466781!0.324507!0.383101!0.407362!0.433589!0.371825!0.205866!0.240245!0.188100!0.170256!0.199691!0.248291!0.201184!0.254225!0.191763!0.132224!0.228495!0.061225!0.040822!0.056915!-0.013341!-0.053931!-0.061987!-0.089048!-0.087643!-0.131283!-0.075254!0.025838!0.222503!0.384897!0.489713!0.708767!1.038464!1.199283!1.254222!1.199114!0.950337!0.828955!0.592712!0.291884!0.265315!-0.016519!-0.120585!-0.081722!-0.079942!-0.105188!-0.105200!-0.055816!0.063068!0.014793!0.076681!0.033941!0.007393!0.085394!0.138767!0.196828!0.143072!0.090140!0.176868!0.161934!0.100236!0.129328!0.138421!0.227207!0.282940!0.280755!0.308258!0.293672!0.315756!0.288235!0.435943!0.284831!0.415294!0.476362!0.465457!0.522464!0.443783!0.420509!0.472976!0.564915!0.545175!0.470253!0.418709!0.534879!0.593583!0.556666!0.575940!0.529228!0.397914!0.429832!0.462388!0.377917!0.424493!0.330373!0.415268!0.416356!0.264104!0.350778!0.330544!0.255326!0.210459!0.160144!0.206554!0.154671!0.203566!0.072593!0.049953!0.215649!0.082308!0.106037!0.095534!0.064809!0.199284!0.158648!0.042877!0.164663!0.185122!0.018418!0.194855!0.151215!0.192647!0.128505!0.167623!0.057011!0.209824!0.024128!0.038810!0.136527!0.032496!0.148274!0.210302!0.222323!0.170380!0.241639!0.219260!0.222354!0.250393!0.273483!0.295640!0.282888!0.282315!0.293928!0.316735!0.229320!0.308951!0.335139!0.446926!0.470879!0.333537!0.463966!0.353581!0.351369!0.439626!0.433145!0.411603!0.246396!0.218997!0.340871!0.235129!0.322288!0.275916!0.168318!0.124628!0.149835!0.128098!0.211474!0.066965!0.047169!0.114788!0.045391!-0.058914!-0.015924!0.024756!-0.078046!0.021374!-0.091481!0.121001!0.145249!0.385191!0.572916!0.810343!0.934769!1.133755!1.235731!1.210793!0.921119!0.733326!0.648285!0.251122!0.036997!-0.087255!-0.214013!-0.139619!-0.252331!-0.104063!-0.117410!-0.019257!-0.010559!-0.079706!0.006836!-0.008262!0.105175!0.111322!0.134992!0.018439!0.199057!0.151249!0.190896!0.153886!0.130704!0.237376!0.275183!0.111945!0.246176!0.215475!0.270878!0.282228!0.212615!0.349245!0.298200!0.306829!0.264461!0.399149!0.363880!0.362653!0.500303!0.488786!0.430574!0.457092!0.398040!0.500313!0.504931!0.489115!0.569243!0.475256!0.517335!0.509307!0.549014!0.433414!0.401276!0.327092!0.297228!0.338638!0.372905!0.334548!0.219726!0.372148!0.163338!0.267801!0.307046!0.202569!0.235528!0.173052!0.093296!0.104044!0.096142!0.156146!0.031107!0.035880!0.166104!0.116945!0.136710!0.011607!0.086488!0.028488!0.056537!0.168843!0.101242!0.013411!0.071642!0.045301!0.051500!0.136445!0.120171!0.028299!0.180556!0.028456!0.078325!0.087327!0.013381!0.199449!0.180153!0.077239!0.217484!0.181650!0.096112!0.236279!0.132234!0.194716!0.218132!0.197592!0.282604!0.263421!0.221134!0.229300!0.282779!0.383754!0.411657!0.397315!0.399913!0.419033!0.265783!0.219088!0.229391!0.361611!0.328181!0.251218!0.302247!0.200615!0.142117!0.111935!0.165728!0.151958!0.077469!0.079184!0.110023!0.020925!-0.042947!-0.025853!0.029119!0.028349!-0.177307!-0.035317!-0.053373!-0.031178!-0.047487!0.155238!0.207551!0.597881!0.804362!0.993261!1.100102!1.171406!1.084467!1.013998!0.762811!0.577433!0.179136!0.096117!0.005587!-0.269978!-0.302947!-0.209791!-0.264128!-0.115749!-0.158558!-0.085718!-0.033928!-0.098100!0.055727!0.044512!0.125942!0.009132!-0.038373!0.072812!0.076134!0.138951!0.125413!0.201146!0.154954!0.140455!0.171127!0.255197!0.102911!0.159320!0.186226!0.275856!0.311135!0.219947!0.240813!0.403427!0.421353!0.267871!0.456190!0.440187!0.412383!0.359166!0.459166!0.327303!0.476174!0.518316!0.435756!0.462123!0.438847!0.492284!0.368771!0.300393!0.370390!0.316759!0.342718!0.341758!0.333829!0.335898!0.178478!0.174165!0.260379!0.284748!0.136103!0.155494!0.246873!0.065622!0.155243!0.000949!0.010246!0.095522!0.071603!0.069288!0.017552!-0.033281!-0.031603!-0.003720!0.067132!-0.053876!0.040495!0.092381!-0.063388!-0.061578!-0.052319!-0.067025!-0.018162!-0.028788!0.108666!0.000783!0.051786!0.026538!0.072986!0.123904!-0.024598!0.059829!0.097104!0.019494!0.110756!0.101670!0.168188!0.085399!0.075479!0.224055!0.119363!0.272741!0.287392!0.263566!0.161553!0.309337!0.356880!0.253077!0.203533!0.296516!0.314824!0.342215!0.188443!0.239698!0.329190!0.274210!0.231480!0.285715!0.138254!0.215653!0.113238!0.203644!0.047407!0.092266!0.137594!0.084710!-0.015084!0.039238!-0.018705!0.086107!0.006713!-0.153722!-0.109939!-0.083813!-0.241515!-0.213099!-0.162127!-0.021004!0.073266!0.168793!0.404301!0.594184!0.755470!0.878363!1.129051!1.054552!0.900223!0.823574!0.519478!0.423452!0.189958!-0.077448!-0.277094!-0.207752!-0.291500!-0.219847!-0.337917!-0.162653!-0.173525!-0.020314!0.003754!-0.113744!-0.076355!0.041903!-0.015720!0.057229!0.068419!-0.027234!0.099045!0.136239!0.108238!-0.010495!0.084221!0.045183!0.178215!0.171492!0.186780!0.243874!0.186603!0.112117!0.230060!0.317299!0.342273!0.299533!0.357269!0.309780!0.248618!0.387209!0.388525!0.316232!0.359532!0.445922!0.352542!0.477139!0.319499!0.360611!0.439646!0.332581!0.277467!0.417583!0.367101!0.410802!0.247454!0.304894!0.182070!0.312235!0.272742!0.176049!0.115130!0.233198!0.046895!0.118347!0.044172!0.034644!-0.025016!-0.049474!0.082650!0.041728!0.010353!0.056189!-0.065524!0.042491!0.022389!-0.115316!0.072551!-0.037843!-0.109922!-0.034328!-0.045565!0.015514!-0.010422!0.063903!0.046647!-0.085439!-0.056284!-0.084558!-0.043059!-0.101263!0.040779!0.091565!0.036087!-0.035969!-0.024188!0.081388!-0.035358!-0.009124!0.026343!0.083415!0.035064!-0.002429!0.176056!0.036774!0.095103!0.180897!0.133925!0.301939!0.225212!0.146636!0.333829!0.210963!0.248794!0.260972!0.321816!0.271823!0.240062!0.107909!0.194598!0.170305!0.200075!0.059623!0.101232!0.132280!-0.027271!0.001729!0.019018!0.054198!-0.075586!0.078707!-0.102042!-0.064894!-0.096815!-0.137283!-0.106071!-0.110685!-0.239831!-0.223967!-0.107492!-0.228569!0.038406!0.006045!0.335271!0.506651!0.623689!0.994660!0.950485!1.022706!1.064477!0.724361!0.627647!0.301824!0.057709!-0.022331!-0.222329!-0.303858!-0.305451!-0.310473!-0.260017!-0.231234!-0.249819!-0.066819!-0.188169!-0.120855!-0.100690!0.040855!-0.029526!-0.050784!0.070250!-0.006706!0.004243!0.011922!0.061657!-0.016591!0.068939!0.071170!0.090373!0.099773!0.138286!0.171110!0.226703!0.151069!0.210817!0.157625!0.229500!0.318956!0.177762!0.321822!0.250476!0.241469!0.250475!0.356766!0.394974!0.373412!0.284685!0.318388!0.398133!0.459209!0.406240!0.339940!0.280658!0.269819!0.357470!0.218570!0.273147!0.314170!0.348845!0.222723!0.167738!0.275037!0.118986!0.179436!0.107821!0.200910!0.150560!0.080155!0.121606!0.071995!0.109199!0.088305!-0.018588!0.059055!-0.102208!-0.121136!0.017174!-0.104379!0.053162!0.031967!0.013446!-0.038982!0.067579!-0.025425!0.034933!-0.026660!-0.039392!-0.096538!-0.039533!0.003862!0.001798!0.066282!0.047224!-0.044254!0.010859!0.032512!-0.080103!0.029738!0.019403!-0.022418!0.127874!-0.035004!0.056222!0.174188!0.042012!0.097938!0.138915!0.075864!0.131191!0.303578!0.145591!0.244935!0.257662!0.265149!0.335313!0.225680!0.332413!0.221245!0.276496!0.307280!0.178184!0.191920!0.078293!0.226621!0.194727!-0.006256!0.097518!0.146971!0.118817!0.081028!-0.002786!0.041666!-0.100174!-0.012249!-0.026738!-0.103856!-0.112905!-0.167025!-0.276594!-0.145141!-0.213186!-0.108388!-0.131862!-0.009059!0.156095!0.467527!0.619448!0.862186!1.095442!1.001893!0.963177!0.812258!0.603688!0.429128!0.254163!-0.000965!-0.210379!-0.313137!-0.280130!-0.291453!-0.341054!-0.312623!-0.173244!-0.086056!-0.169823!0.033930!-0.081519!0.015343!-0.086431!0.081123!0.047119!0.060281!0.002121!-0.015395!-0.002615!0.120221!0.008257!0.058451!0.184771!0.210137!0.104481!0.050074!0.093471!0.209913!0.164995!0.288335!0.184762!0.303900!0.326625!0.338440!0.348827!0.412270!0.259810!0.268479!0.277312!0.366457!0.445598!0.482817!0.383474!0.313000!0.478733!0.461256!0.367994!0.362651!0.385677!0.420944!0.324007!0.354593!0.225030!0.314233!0.253989!0.152992!0.211443!0.206642!0.154983!0.106615!0.124185!0.118201!0.166962!0.006883!0.031680!0.100845!0.029483!-0.042627!0.063009!0.078041!-0.085384!-0.013511!-0.072615!0.101415!-0.029397!0.041007!0.010672!0.105338!-0.043219!0.060974!0.041596!-0.082046!-0.088441!-0.061603!-0.001918!0.112230!0.091883!0.033864!0.056128!0.015299!-0.032665!0.100008!0.098679!0.009416!0.067862!0.038010!0.202515!0.044799!0.107807!0.101409!0.202170!0.221161!0.177789!0.168018!0.291844!0.216989!0.188666!0.195569!0.381827!0.267571!0.295588!0.174353!0.164063!0.191809!0.326713!0.182351!0.109461!0.201348!0.212996!0.059605!0.189291!0.095674!0.125741!0.059590!0.044003!0.127106!-0.043592!0.051457!-0.002854!-0.090120!-0.017898!-0.114989!-0.184990!-0.056718!-0.102829!-0.143766!0.022444!0.139396!0.354406!0.576199!0.777054!0.908085!0.979575!1.049134!1.156257!0.852847!0.777346!0.372998!0.311330!-0.069517!-0.081668!-0.260143!-0.314034!-0.171919!-0.265549!-0.222756!-0.122597!-0.060405!-0.133034!-0.099033!0.106607!0.041536!0.096656!0.011734!0.098754!0.078574!0.136783!0.161280!0.090322!0.153268!0.171222!0.151094!0.181642!0.130203!0.091390!0.222251!0.279945!0.222073!0.169042!0.191116!0.214370!0.305393!0.398196!0.296081!0.408990!0.409348!0.442869!0.354049!0.389276!0.453867!0.423615!0.436263!0.391948!0.526040!0.490581!0.394227!0.421552!0.468564!0.328988!0.402175!0.321180!0.268943!0.336557!0.350467!0.304670!0.276326!0.212562!0.225721!0.279027!0.269391!0.112406!0.180894!0.082793!0.142998!0.182921!0.088294!0.060845!0.150940!-0.042266!0.090809!0.084366!0.016667!0.013328!-0.007970!0.079602!0.144217!0.119692!0.022369!0.011288!0.012311!0.055975!0.050909!0.127601!0.063293!0.074293!0.006178!0.099319!0.085728!0.028558!0.028436!0.142654!0.000118!0.036382!0.027150!0.167158!0.102005!0.192953!0.115954!0.155169!0.125279!0.319765!0.173870!0.196139!0.297690!0.243699!0.265902!0.352580!0.240010!0.378477!0.328101!0.255871!0.409757!0.326173!0.250245!0.178964!0.227237!0.300172!0.191343!0.264488!0.258655!0.176473!0.163836!0.147971!0.194774!0.167472!0.153839!0.065486!-0.017508!0.069988!-0.078119!-0.116214!-0.024032!-0.085667!-0.018734!-0.097070!0.019279!0.031805!0.180593!0.471235!0.554994!0.740790!1.116719!1.215955!1.220662!1.111566!0.833735!0.671855!0.344104!0.245946!0.064599!-0.164711!-0.094439!-0.278877!-0.184992!-0.129572!-0.035633!-0.030843!-0.007955!-0.079415!0.092496!0.036655!0.060233!0.025657!0.148330!0.179363!0.147645!0.213021!0.057992!0.184308!0.084285!0.115952!0.130049!0.099825!0.186908!0.130573!0.215278!0.265640!0.290571!0.284280!0.252393!0.413846!0.435810!0.291773!0.490786!0.389760!0.531865!0.454828!0.519298!0.525501!0.509680!0.401878!0.410954!0.473617!0.541091!0.433863!0.439848!0.549043!0.450285!0.382669!0.501877!0.434584!0.374155!0.462925!0.437952!0.424702!0.275418!0.293278!0.182068!0.274115!0.181824!0.173194!0.110416!0.103137!0.088235!0.105387!0.200515!0.145312!0.155560!0.020439!0.148842!0.101310!0.166369!0.126814!0.081904!0.153501!0.042627!0.147128!0.083596!0.150634!0.029601!0.065573!0.143727!0.076638!0.016844!0.012007!0.050891!0.161795!0.168465!0.144700!0.170012!0.167774!0.103696!0.206400!0.103858!0.177773!0.164080!0.205541!0.311154!0.234180!0.177531!0.263079!0.381405!0.403682!0.247310!0.405957!0.390591!0.450580!0.449920!0.308512!0.419088!0.304267!0.360494!0.333690!0.419231!0.324119!0.380261!0.303373!0.227476!0.151515!0.200432!0.278928!0.249832!0.111567!0.102669!0.068714!0.095395!0.194734!0.098031!-0.038067!0.115048!-0.051081!-0.045763!-0.095352!-0.096569!-0.099752!-0.101549!0.096035!0.315627!0.378805!0.723668!0.885657!0.983684!1.077633!1.239565!1.014149!0.877457!0.639479!0.459799!0.283418!0.065145!-0.131380!-0.201204!-0.270497!-0.098031!-0.166636!-0.015754!0.004327!0.092613!0.100723!0.025937!0.005221!0.146669!0.188034!0.009607!0.200821!0.206291!0.096227!0.140849!0.172393!0.117314!0.167839!0.217443!0.206359!0.222812!0.310606!0.236827!0.336101!0.249964!0.380167!0.397714!0.352650!0.457452!0.374963!0.505326!0.373623!0.379274!0.499937!0.414588!0.577417!0.518464!0.442169!0.452163!0.413498!0.410519!0.397311!0.421269!0.497037!0.386142!0.368647!0.448592!0.489349!0.377147!0.391273!0.373456!0.417344!0.388069!0.217725!0.229242!0.251786!0.171087!0.210598!0.293137!0.146046!0.089055!0.061512!0.152060!0.219074!0.153859!0.189905!0.086583!0.023185!0.050359!0.175449!0.125806!0.014979!0.152623!0.120531!0.083142!0.177357!0.201489!0.202997!0.166257!0.104648!0.064337!0.103758!0.101218!0.197726!0.019685!0.023488!0.063355!0.128844!0.050413!0.091758!0.063189!0.162874!0.233234!0.253159!0.216866!0.316837!0.297330!0.200500!0.207532!0.287903!0.296819!0.357239!0.280021!0.459350!0.293968!0.350999!0.275122!0.308844!0.425852!0.383123!0.374122!0.314577!0.306928!0.234617!0.234532!0.319879!0.296783!0.195487!0.221840!0.141365!0.231395!0.170570!0.122660!0.200854!0.028102!0.029403!0.053431!0.058188!0.043519!-0.095165!-0.030785!-0.152570!0.054306!-0.009004!0.126067!0.395190!0.622748!0.702961!1.083797!1.137085!1.264948!1.132632!1.070583!0.740081!0.470851!0.378426!0.092613!0.022722!-0.215481!-0.281360!-0.228192!-0.199696!-0.211330!-0.123033!0.065189!-0.070429!0.057227!0.055167!-0.013403!0.006382!0.008314!0.074480!0.136643!0.146403!0.167545!0.236759!0.063778!0.155482!0.083521!0.221747!0.247126!0.145694!0.257311!0.342732!0.365023!0.287770!0.413449!0.403741!0.332437!0.448971!0.411488!0.316629!0.404723!0.501349!0.416192!0.453929!0.561220!0.404705!0.381410!0.507563!0.551574!0.498297!0.417122!0.556658!0.479030!0.379481!0.461921!0.340010!0.310455!0.351486!0.266471!0.385981!0.255995!0.371831!0.212471!0.254073!0.195340!0.206057!0.142682!0.098918!0.109150!0.048618!0.131925!0.113980!-0.004288!0.152353!0.060026!0.023065!0.064764!0.006035!0.093251!0.174596!-0.006194!0.094332!0.170488!0.155097!0.029888!0.104446!0.001554!0.120778!0.063559!0.084979!0.003068!0.042091!0.086263!0.090741!0.102073!0.055738!0.098794!0.172102!0.122061!0.196497!0.062293!0.105601!0.232375!0.108012!0.252485!0.310666!0.228096!0.178687!0.257455!0.312611!0.303685!0.376748!0.290363!0.429171!0.420448!0.423895!0.352388!0.254389!0.370594!0.326010!0.168895!0.223014!0.243556!0.189447!0.206928!0.111430!0.072227!0.026251!0.011767!0.062779!0.065117!0.139945!0.076649!0.077332!0.054538!0.032583!-0.097506!0.008809!-0.021325!-0.038887!-0.113235!-0.075654!0.090575!0.260235!0.344681!0.735999!0.954451!1.085566!1.105276!1.174647!1.084815!0.910120!0.618755!0.306038!0.106792!-0.012859!-0.115412!-0.199033!-0.200788!-0.160645!-0.162347!-0.035266!-0.142582!0.032249!-0.024023!-0.006305!0.018923!0.073326!0.051314!-0.039235!0.096006!0.065544!0.036483!0.185300!0.005368!0.047609!0.136063!0.213788!0.092954!0.092370!0.134950!0.151970!0.208096!0.253925!0.178206!0.344739!0.304533!0.297296!0.366223!0.346978!0.415429!0.301093!0.341318!0.493621!0.435369!0.377925!0.445996!0.529518!0.384801!0.336779!0.416489!0.327548!0.420535!0.420067!0.360679!0.438412!0.399900!0.345081!0.265595!0.221722!0.182538!0.209471!0.208642!0.222498!0.284237!0.121795!0.246969!0.147715!0.107348!0.188563!0.168621!0.051905!0.016804!0.037399!0.048481!0.125613!0.126042!0.128872!0.019586!0.097566!0.033769!0.047149!0.022273!0.025014!-0.047151!0.008137!0.016068!-0.024805!0.005377!0.001984!0.117549!0.064790!-0.051157!-0.060139!0.131653!0.133487!-0.032597!0.053457!0.063359!0.107534!0.036384!0.176570!0.143124!0.166806!0.095056!0.169674!0.168077!0.262871!0.329061!0.251177!0.276321!0.218048!0.382765!0.304122!0.391401!0.266427!0.183972!0.257308!0.306484!0.172112!0.286957!0.152925!0.134269!0.074118!0.150628!0.064789!0.172722!0.168149!0.105346!0.068269!0.054562!0.033442!-0.001807!-0.021615!0.009574!-0.134866!-0.160180!-0.229887!-0.081983!-0.213864!-0.205175!-0.014298!-0.047099!0.217361!0.472437!0.512413!0.833577!1.023226!1.133775!1.098085!1.052424!0.864339!0.570792!0.388593!0.132078!-0.174621!-0.262057!-0.273011!-0.373093!-0.334038!-0.183227!-0.152658!-0.121944!-0.032488!-0.088281!-0.057864!0.025435!-0.094667!-0.004276!-0.007570!0.064643!0.020005!0.016844!0.074925!-0.032305!0.045731!0.077157!0.158451!0.082337!0.227729!0.127886!0.072280!0.177290!0.230428!0.144851!0.191304!0.338528!0.262968!0.244841!0.338465!0.360840!0.428950!0.390797!0.370863!0.304424!0.314325!0.308834!0.477061!0.432338!0.398381!0.404939!0.318229!0.445613!0.365762!0.341235!0.245419!0.392488!0.204084!0.203086!0.267831!0.143308!0.142513!0.093739!0.232434!0.202978!0.176090!0.095096!0.121918!0.016904!0.089561!0.109766!0.047142!-0.009974!-0.011953!-0.104395!-0.095780!-0.087213!0.028179!0.045220!-0.069687!-0.098395!0.004033!0.008841!0.076878!-0.090529!-0.061839!0.073190!0.089156!0.023599!-0.021109!0.064144!-0.028406!-0.047864!-0.072422!0.107043!-0.021551!0.043807!-0.006864!0.060497!0.057458!0.055491!0.005822!0.169617!0.101356!0.045967!0.170173!0.095750!0.125314!0.216711!0.283775!0.289462!0.330439!0.200267!0.237624!0.184741!0.196661!0.214992!0.176236!0.228664!0.201180!0.141950!0.100792!0.121834!0.027514!0.082980!0.098236!-0.006679!0.132336!0.011689!0.090225!0.043467!0.083972!0.045666!-0.100155!-0.121738!-0.060221!-0.111509!-0.250891!-0.236277!-0.283990!-0.197134!-0.106130!0.172113!0.172159!0.542167!0.764853!0.861387!1.001151!1.052844!1.060985!0.866511!0.547196!0.438762!0.219126!-0.119659!-0.263766!-0.231743!-0.394206!-0.323652!-0.310650!-0.224379!-0.077042!-0.120590!-0.045989!-0.002672!-0.114813!-0.066659!0.065470!0.032501!0.069253!-0.078668!-0.022421!-0.038186!0.025793!-0.012575!-0.011560!0.134341!0.082300!0.197086!0.204151!0.107209!0.152841!0.260349!0.138503!0.256442!0.200281!0.300482!0.249665!0.339833!0.221870!0.356446!0.328125!0.354529!0.424731!0.463509!0.371209!0.398582!0.354221!0.360549!0.333959!0.394948!0.385782!0.345476!0.319103!0.305492!0.293014!0.369364!0.357752!0.191158!0.273503!0.282896!0.116185!0.253768!0.191876!0.120183!0.128311!0.001798!-0.011382!0.105246!0.035913!0.085989!-0.071753!-0.096353!-0.083668!-0.077667!-0.003429!0.047930!-0.111061!-0.078149!-0.012710!-0.010412!0.079325!0.080471!-0.065617!-0.057093!-0.055018!0.009709!-0.066523!-0.017312!-0.040350!-0.103657!-0.028646!0.018141!0.031119!-0.053078!0.070231!-0.023746!0.031055!-0.028762!0.051621!0.165361!0.040431!0.099017!0.157871!0.129612!0.130975!0.252210!0.208034!0.311569!0.327850!0.166248!0.279512!0.324232!0.318248!0.246503!0.191941!0.155201!0.160754!0.254324!0.150770!0.094790!0.131449!0.074809!0.101821!0.161961!0.052356!0.112804!-0.062876!-0.071395!0.037002!0.062715!-0.056506!0.015812!-0.118432!-0.128654!-0.044386!-0.170093!-0.253342!-0.092463!-0.091768!-0.055534!-0.042756!0.265193!0.467455!0.618928!0.781491!0.955611!1.050423!1.007060!0.852355!0.650241!0.402012!0.126427!-0.065198!-0.223131!-0.156035!-0.275560!-0.270597!-0.226179!-0.200323!-0.167098!-0.135608!-0.139647!-0.033785!-0.066518!-0.086644!-0.116271!0.082918!0.021155!0.061935!0.006281!0.012653!0.115100!0.082005!-0.027818!0.111650!0.190814!0.038152!0.154330!0.127085!0.129559!0.279654!0.199518!0.277301!0.213013!0.314829!0.215814!0.256038!0.336972!0.276030!0.344704!0.378742!0.273336!0.332195!0.425150!0.386258!0.397242!0.480893!0.413415!0.462086!0.453312!0.369261!0.262698!0.292335!0.404578!0.277269!0.252616!0.340117!0.254790!0.143844!0.307184!0.118515!0.134233!0.082882!0.218145!0.191584!0.176954!0.054041!0.007626!0.118655!-0.026870!0.005181!-0.021115!-0.019811!-0.058094!-0.044363!0.094923!-0.022126!-0.094845!0.100809!-0.071484!-0.034292!-0.084917!0.021517!-0.021043!0.032893!0.048931!0.087241!-0.055338!-0.083502!0.113334!0.106986!-0.004376!0.078132!-0.061742!0.115592!0.097499!0.098332!0.092052!0.119902!0.111839!0.134867!0.219550!0.066632!0.139741!0.244101!0.203753!0.284534!0.179250!0.365706!0.287234!0.331131!0.289557!0.302837!0.196312!0.359583!0.296274!0.191865!0.266399!0.271315!0.110568!0.177598!0.176042!0.180282!0.129469!0.021138!0.048311!0.074698!0.028004!0.078358!0.117249!0.109661!0.043346!-0.022764!-0.146180!-0.009455!-0.098293!-0.084703!-0.058896!-0.187383!0.033768!0.134325!0.189869!0.440777!0.698348!0.822935!1.077574!1.039314!0.999955!0.968043!0.797870!0.562814!0.204183!0.045026!-0.023600!-0.177320!-0.318284!-0.186112!-0.318971!-0.242217!-0.257401!-0.017266!-0.066693!0.062055!-0.002226!0.034861!-0.027572!0.096530!-0.044433!0.080388!0.032840!0.020812!0.007009!0.133963!0.077813!0.159351!0.201476!0.161264!0.160035!0.203873!0.143473!0.132119!0.317377!0.176770!0.206874!0.362574!0.349314!0.415930!0.376228!0.374695!0.454876!0.366741!0.445725!0.450683!0.358550!0.525076!0.431355!0.383551!0.431689!0.503135!0.485695!0.378000!0.490630!0.418700!0.378249!0.287096!0.366679!0.247225!0.372260!0.293802!0.314506!0.286031!0.151310!0.231895!0.190700!0.070680!0.097502!0.134488!0.061397!0.086762!0.078277!0.097309!0.028268!0.031858!0.029388!0.098479!0.137496!0.087252!0.098463!0.103690!-0.029546!0.118515!0.086511!0.146745!0.124944!0.124414!0.141814!0.020729!0.021472!0.131168!0.057032!0.122543!0.131163!0.087722!0.149448!0.000654!0.158152!0.035626!0.093522!0.216497!0.165317!0.086555!0.262173!0.194888!0.193594!0.261285!0.247491!0.315717!0.326099!0.327859!0.229927!0.340715!0.287428!0.291798!0.325239!0.239344!0.234001!0.404581!0.371238!0.345989!0.339694!0.213592!0.262225!0.294635!0.079889!0.149778!0.100543!0.148197!0.099562!0.173664!0.059986!0.114733!0.050874!-0.008308!0.049034!-0.052481!0.021555!-0.038008!-0.090254!-0.075423!-0.014939!-0.113189!-0.003866!0.324350!0.358290!0.646204!0.810623!1.096726!1.238777!1.108849!1.059299!0.836000!0.618639!0.466334!0.244798!0.079991!-0.158181!-0.130400!-0.315820!-0.299506!-0.101556!-0.052103!-0.045436!-0.000164!-0.024393!-0.056552!0.011666!0.151247!0.131627!0.072051!0.179884!0.038247!0.044435!0.041832!0.144225!0.093820!0.163531!0.191809!0.186306!0.271883!0.226311!0.331370!0.305756!0.317791!0.376917!0.386897!0.275385!0.385265!0.284209!0.306845!0.492523!0.444347!0.476590!0.540999!0.521527!0.504398!0.444446!0.535985!0.489155!0.427237!0.388587!0.508952!0.547754!0.382266!0.485817!0.418230!0.364045!0.448821!0.384582!0.390472!0.381199!0.281385!0.219405!0.189113!0.308917!0.235176!0.269280!0.276157!0.236258!0.081389!0.234616!0.030507!0.031358!0.181513!0.117565!0.046492!0.114426!0.110733!0.018437!0.127738!0.121142!0.020913!0.004562!0.022606!0.162320!0.039876!0.173068!0.046722!0.145964!0.034473!0.155736!0.186292!0.041021!0.187646!0.036838!0.152383!0.051698!0.150131!0.129598!0.194852!0.127335!0.252227!0.164865!0.230791!0.120272!0.230276!0.275504!0.228246!0.287759!0.379495!0.305703!0.334966!0.410427!0.269922!0.368374!0.391071!0.390447!0.365692!0.428273!0.312003!0.293882!0.225505!0.373174!0.347667!0.232977!0.170550!0.203496!0.259109!0.148931!0.193214!0.122962!0.151969!0.081061!0.022638!0.082632!0.035225!0.073627!0.067217!-0.032783!-0.136520!-0.175466!-0.005687!-0.018810!0.062493!0.190001!0.241582!0.524473!0.732424!0.927571!1.042015!1.275918!1.131919!0.971699!0.741963!0.574533!0.331121!0.241184!-0.086885!-0.054235!-0.212701!-0.185832!-0.201962!-0.219385!-0.023269!-0.094279!-0.054703!0.136546!0.075107!0.017117!0.174767!0.085044!0.070585!0.096502!0.091847!0.197335!0.198483!0.154382!0.235630!0.192441!0.116351!0.295563!0.188931!0.203129!0.172910!0.330971!0.293746!0.394238!0.279700!0.281979!0.401549!0.376560!0.473236!0.521166!0.371902!0.459882!0.529490!0.415517!0.414051!0.562158!0.561718!0.519597!0.553120!0.501075!0.525089!0.484161!0.380696!0.500065!0.480836!0.473049!0.464783!0.459334!0.271989!0.245828!0.236174!0.345999!0.341387!0.192748!0.303117!0.124777!0.189350!0.155296!0.149756!0.068019!0.133365!0.111620!0.153416!0.089610!0.142508!0.111927!0.016572!0.099203!0.197792!0.140101!0.175393!0.168609!0.155050!0.169594!0.142870!0.021472!0.047507!0.163577!0.079949!0.151572!0.169640!0.097031!0.018078!0.193759!0.223386!0.123932!0.206487!0.135270!0.156239!0.113987!0.145325!0.152336!0.202937!0.149980!0.198185!0.212129!0.215966!0.273594!0.251194!0.393435!0.295289!0.387684!0.444733!0.325218!0.354553!0.408837!0.415879!0.294963!0.352274!0.328120!0.362371!0.313495!0.232635!0.295651!0.187326!0.248934!0.092859!0.119922!0.170178!0.182109!0.147599!0.057224!0.079163!0.085264!0.018519!0.020003!-0.082177!-0.079029!-0.103945!0.010894!0.055182!-0.008980!0.112558!0.424991!0.537036!0.814411!1.061276!1.155544!1.196688!1.166446!1.020239!0.813147!0.488250!0.334953!0.001558!-0.112247!-0.110104!-0.085121!-0.269731!-0.224559!-0.188743!-0.005386!0.022544!-0.061373!-0.016992!0.156939!0.046965!0.192466!0.150153!0.169409!0.121127!0.227942!0.084872!0.252055!0.217637!0.175014!0.219389!0.266715!0.254338!0.180224!0.250321!0.238697!0.202790!0.279277!0.423987!0.302561!0.387899!0.474173!0.349778!0.352999!0.477702!0.357035!0.502365!0.550370!0.417368!0.419805!0.529887!0.477475!0.585282!0.459891!0.542125!0.453063!0.359945!0.394700!0.415892!0.388714!0.327301!0.432381!0.409083!0.305586!0.245362!0.206399!0.252560!0.331004!0.270613!0.298479!0.084593!0.169729!0.142294!0.221781!0.144695!0.185817!0.064533!0.183994!0.107080!0.018659!0.006464!0.183266!0.036947!0.148971!0.032247!0.146812!0.106913!0.045477!-0.012621!0.109605!0.179649!0.112800!0.147692!0.117871!0.114637!0.107399!0.002133!0.110274!0.018051!0.112267!0.144655!0.224421!0.067279!0.163573!0.104976!0.095988!0.257991!0.267183!0.282486!0.211396!0.280197!0.278951!0.383909!0.371092!0.305206!0.365947!0.305443!0.372255!0.308369!0.245896!0.323199!0.330783!0.258039!0.283787!0.231416!0.159547!0.173323!0.266345!0.090028!0.242385!0.068523!0.094691!0.080863!-0.001291!0.019215!0.049912!-0.057712!0.062398!-0.039623!-0.035373!-0.155606!-0.038665!-0.042905!-0.149279!-0.055437!0.084226!0.412227!0.575473!0.706494!0.933565!1.117462!1.160667!1.033488!0.890904!0.776732!0.559177!0.155944!-0.000922!-0.186349!-0.192084!-0.261067!-0.240590!-0.226212!-0.233361!-0.167233!-0.026438!-0.024341!-0.034449!0.011983!0.075906!-0.011784!0.008014!0.030994!0.116579!0.151978!0.058136!0.042017!0.187267!0.129035!0.201644!0.241080!0.199946!0.258048!0.281764!0.294458!0.287702!0.280695!0.286823!0.272520!0.325709!0.333633!0.376974!0.331505!0.316242!0.500171!0.332325!0.526953!0.521644!0.447445!0.510832!0.460015!0.422708!0.342439!0.385080!0.313375!0.450564!0.476314!0.463198!0.416011!0.249339!0.284514!0.244886!0.201573!0.284344!0.136877!0.114720!0.101608!0.109624!0.184246!0.200757!0.048650!0.186594!-0.015474!-0.034367!0.090559!0.023358!0.086416!0.008035!0.020796!0.059228!-0.019348!0.071582!0.118199!0.130923!0.135234!-0.038372!0.133774!0.094299!0.056065!0.034003!0.075759!-0.050669!0.073244!0.139818!0.009529!-0.036324!0.099066!0.016446!0.059248!0.168194!-0.013642!0.103191!0.193157!0.210628!0.054971!0.159094!0.110388!0.229769!0.300445!0.294521!0.179793!0.182057!0.241130!0.359458!0.332236!0.382471!0.249746!0.183809!0.313099!0.215102!0.221777!0.183103!0.206798!0.180718!0.204498!0.096952!0.150505!0.111972!0.080396!0.023554!0.101838!0.105571!-0.018592!0.013416!-0.109265!-0.062118!-0.106215!-0.114164!-0.144163!-0.185465!-0.207103!-0.050486!0.010958!0.155113!0.186728!0.432411!0.765046!0.797721!1.026406!1.074102!1.137471!0.941659!0.769420!0.465848!0.263058!-0.015844!-0.089418!-0.290002!-0.177290!-0.224233!-0.258387!-0.141409!-0.213091!-0.174820!-0.119378!-0.040914!-0.074174!0.057271!0.020240!-0.082648!0.065414!-0.028222!-0.036975!0.047622!0.036477!0.041293!0.100696!0.043742!0.155935!0.085087!0.239941!0.208419!0.085381!0.175944!0.138788!0.196038!0.220643!0.241295!0.221003!0.405457!0.387075!0.382474!0.364718!0.427468!0.382358!0.327323!0.387563!0.311767!0.320305!0.396837!0.283895!0.361849!0.276888!0.377919!0.378571!0.390755!0.284112!0.193945!0.267573!0.240545!0.247696!0.282502!0.225679!0.254677!0.145961!0.215715!0.191127!0.050261!0.115303!0.071661!0.082840!0.027221!0.056800!-0.091131!0.023760!-0.079322!-0.048956!0.049989!-0.070364!-0.043057!-0.092272!0.031426!0.001239!0.007254!0.017907!0.035976!-0.035332!0.074572!-0.097336!0.065889!0.022454!0.102782!-0.033989!0.026369!-0.068837!-0.012639!-0.055212!-0.015828!0.079837!0.116202!0.081987!0.009910!0.181277!0.102258!0.089692!0.142748!0.118945!0.119764!0.228323!0.299807!0.200015!0.164497!0.168213!0.164739!0.283204!0.188958!0.297398!0.185118!0.225371!0.093638!0.183471!0.240743!0.032747!0.023609!0.111655!0.029209!-0.010929!-0.007874!-0.012273!0.052389!-0.091799!-0.022109!-0.128122!-0.080050!-0.062080!-0.093619!-0.216650!-0.175804!-0.081750!-0.163747!0.017163!0.004971!0.367098!0.531092!0.799745!0.999550!1.002227!1.016688!1.033149!0.811534!0.662240!0.305278!0.055536!-0.156091!-0.169411!-0.230009!-0.195152!-0.219931!-0.284792!-0.220300!-0.179734!-0.163696!-0.102369!-0.104474!-0.022977!-0.115435!-0.079781!0.013765!-0.085375!0.026214!0.097271!0.073891!0.143948!0.031309!0.061617!0.142594!0.089976!0.071099!0.075582!0.151102!0.113386!0.285020!0.226611!0.228187!0.192935!0.320101!0.324335!0.312628!0.374546!0.286010!0.433707!0.319348!0.444848!0.440792!0.380043!0.344444!0.368658!0.449529!0.331492!0.295354!0.384161!0.407122!0.326468!0.213392!0.186055!0.211911!0.187267!0.177139!0.125679!0.130319!0.140732!0.196656!0.131177!0.095733!0.011886!0.025326!-0.037980!0.091611!-0.015714!0.001148!0.033718!-0.074229!-0.089371!0.032600!-0.079465!-0.006921!-0.005409!-0.027470!-0.085148!-0.001116!-0.090228!0.081284!0.070223!-0.064746!-0.090567!0.030045!0.022898!0.004612!-0.049041!-0.098671!0.020741!0.036116!0.031126!0.036378!0.061485!0.042818!-0.025978!0.075795!0.041063!0.194246!0.037357!0.081065!0.220164!0.100718!0.168103!0.243373!0.168455!0.286289!0.248818!0.319206!0.180482!0.284487!0.162655!0.299140!0.195950!0.251791!0.126907!0.254315!0.125188!0.210431!0.062189!0.034989!0.056678!0.075011!-0.020962!-0.058607!0.045893!0.055895!0.015684!-0.007154!-0.064926!-0.036151!-0.214616!-0.250912!-0.272961!-0.254663!-0.134874!-0.020917!-0.018181!0.309776!0.535237!0.715492!0.793492!1.046208!1.130270!1.064253!0.942589!0.731417!0.343777!0.210386!0.065809!-0.222596!-0.259314!-0.222428!-0.248660!-0.167297!-0.105850!-0.169763!-0.074396!-0.140047!0.016333!0.050915!0.071125!0.090477!-0.028298!-0.055864!-0.020477!0.092370!0.052134!0.101375!0.029964!0.001985!0.190553!0.050752!0.172530!0.161658!0.265733!0.170126!0.281073!0.150965!0.213033!0.223973!0.249514!0.251299!0.332725!0.369048!0.449306!0.299309!0.465106!0.475083!0.492639!0.394490!0.398473!0.472963!0.430979!0.310248!0.422928!0.429646!0.387974!0.287584!0.392766!0.264342!0.355844!0.362827!0.227937!0.317024!0.277708!0.166413!0.247111!0.052618!0.166419!0.079550!0.012940!0.029288!0.097282!0.014415!-0.046467!-0.057048!0.052836!-0.061654!0.052179!0.006149!-0.010596!-0.051269!0.010720!-0.014671!-0.054308!0.019782!-0.069282!0.085323!0.024352!-0.038609!0.051741!-0.072783!0.022864!-0.001679!-0.029303!0.043988!-0.014676!-0.045718!0.010216!0.139748!0.032691!0.135091!0.156879!0.088346!0.189873!0.152665!0.244499!0.240243!0.221515!0.190626!0.349557!0.258426!0.263296!0.251158!0.264498!0.295549!0.208212!0.217076!0.252749!0.209837!0.244626!0.132337!0.189813!0.091579!0.146626!0.147469!0.087315!0.124365!0.064660!0.098580!0.079972!0.123437!0.122612!-0.002821!0.083158!-0.036888!-0.059531!-0.054253!-0.225422!-0.230469!-0.135236!-0.097427!-0.015318!0.113226!0.358136!0.658178!0.765623!1.062362!