1.045816
0.897237
0.712057
0.555730
0.329712
0.050677
-0.083475
-0.247485
-0.322070
-0.420918
-0.354431
-0.279500
-0.248310
-0.164721
-0.210125
-0.031174
-0.191314
-0.113523
0.009659
-0.082685
-0.049697
-0.161633
-0.001060
0.003793
-0.089574
-0.040893
-0.053887
-0.075410
-0.030554
0.040238
0.065306
0.150136
0.085993
0.105594
0.238061
0.137269
0.119779
0.254629
0.322025
0.256005
0.279461
0.197556
0.250816
0.383425
0.361628
0.407271
0.422874
0.396351
0.275754
0.418264
0.278573
0.357280
0.347150
0.221767
0.389509
0.307448
0.298454
0.228019
0.262091
0.192840
0.157284
0.249999
0.126339
0.030267
0.156693
0.032662
0.007828
0.001570
0.082879
-0.000584
-0.116203
-0.084514
-0.001013
-0.069527
-0.113584
-0.135579
-0.134204
-0.078089
-0.168981
-0.100220
-0.102578
-0.118141
-0.119371
-0.022500
-0.144166
-0.008964
-0.107783
-0.099198
-0.035022
-0.158228
-0.010705
-0.026171
0.022317
-0.149496
-0.022919
-0.013437
0.013019
-0.042664
0.018623
-0.135665
0.011819
0.002149
0.050342
-0.048045
0.001712
0.003070
-0.035493
0.116455
-0.023432
0.093808
0.058367
0.215527
0.165802
0.098866
0.270237
0.124333
0.157546
0.181752
0.298263
0.214023
0.142520
0.294605
0.186741
0.254549
0.252815
0.190426
0.141419
0.189274
0.007132
-0.015645
-0.046415
-0.005926
-0.052965
0.100094
-0.028132
0.028589
0.004570
0.005589
0.014519
-0.132634
-0.187792
-0.251033
-0.179997
-0.203985
-0.168179
-0.117080
-0.030955
0.084856
0.430262
0.731814
0.803542
1.114540
1.197803
0.982717
0.890801
0.696442
0.423932
0.187323
-0.070173
-0.202065
-0.317882
-0.292624
-0.371550
-0.177025
-0.099229
-0.045920
-0.165689
0.038352
-0.106848
0.056295
-0.000799
-0.094441
-0.064125
0.037184
0.072252
-0.054241
-0.014749
0.009434
0.120182
0.146843
0.127446
0.202257
0.137760
0.264105
0.140571
0.248684
0.252367
0.211606
0.234290
0.337599
0.384867
0.258644
0.336702
0.441871
0.488132
0.508770
0.406137
0.415879
0.402232
0.427741
0.489995
0.483276
0.523768
0.356206
0.378307
0.430066
0.303936
0.317084
0.393645
0.254018
0.253446
0.257182
0.212039
0.133143
0.196692
0.128342
0.165770
0.037575
0.135848
0.080168
0.108230
0.025542
0.009052
0.024984
0.038290
-0.056610
-0.063123
-0.050592
-0.075229
-0.077237
-0.057362
0.042387
0.014747
0.011493
0.096335
0.036232
0.053206
-0.004844
-0.039259
0.099087
0.073152
0.065920
-0.073130
0.096880
0.047866
0.107760
0.028975
-0.016821
-0.057455
0.012470
0.005894
0.108336
0.141543
-0.035848
0.035287
0.176114
0.073763
0.083366
0.046599
0.163922
0.097262
0.166265
0.301295
0.276491
0.205944
0.324527
0.257272
0.278193
0.310783
0.255518
0.270897
0.265074
0.281384
0.276153
0.348909
0.309327
0.177935
0.288514
0.218426
0.224568
0.135550
0.022579
0.187290
0.115134
-0.018952
0.152317
0.004812
0.123675
-0.049070
-0.108132
0.035953
-0.005622
-0.145098
-0.219607
-0.112502
-0.114803
0.085117
0.225239
0.376840
0.683913
0.802798
1.013077
1.066176
1.068265
1.030949
0.736994
0.560048
0.272483
-0.036317
-0.168776
-0.285129
-0.224404
-0.288599
-0.101151
-0.211105
0.006471
-0.073022
0.061851
-0.058417
0.084422
-0.011375
0.158225
0.070122
0.082478
0.038161
0.069610
0.107684
0.120905
0.125489
0.077745
0.106458
0.210253
0.221443
0.156779
0.314859
0.268591
0.380171
0.264820
0.419973
0.373792
0.429049
0.306958
0.431673
0.510860
0.448328
0.466129
0.529906
0.509045
0.475509
0.496162
0.531989
0.481828
0.395676
0.414804
0.533136
0.450593
0.422975
0.483098
0.325759
0.434862
0.340976
0.353919
0.319549
0.187296
0.331155
0.199147
0.108164
0.094287
0.248193
0.150204
0.116685
0.134132
0.035423
0.118826
0.018430
0.086740
0.143993
0.090824
0.139975
0.098924
0.051964
0.036748
0.075508
0.009710
0.037405
0.082214
0.114048
0.013833
0.081886
0.052031
-0.017045
0.013059
-0.026273
0.127624
0.090270
0.121094
0.146533
0.085528
0.064818
0.076890
0.167764
0.101461
0.153785
0.090504
0.007481
0.065370
0.141846
0.069441
0.163236
0.124458
0.177104
0.156973
0.242952
0.322252
0.351117
0.399465
0.378502
0.302749
0.417014
0.345702
0.288336
0.257910
0.218649
0.225996
0.356801
0.171544
0.293912
0.134479
0.252743
0.179757
0.079667
0.181816
0.164265
0.012399
0.015574
0.090376
0.022125
-0.005715
0.076328
0.011757
-0.010660
-0.045393
-0.026028
-0.192714
-0.060834
0.000596
0.150614
0.290331
0.639726
0.791787
0.991411
1.247125
1.070124
0.940720
0.795479
0.448225
0.367666
0.077523
-0.074979
-0.231457
-0.231805
-0.306994
-0.225203
-0.036403
-0.139789
-0.048350
0.085149
0.061970
0.134710
0.137078
0.016464
0.166034
0.072481
0.168370
0.093352
0.128360
0.025860
0.182734
0.134956
0.091814
0.204875
0.105312
0.312067
0.283130
0.220548
0.338723
0.341635
0.288649
0.360631
0.286516
0.429963
0.497761
0.423558
0.418998
0.541299
0.370110
0.560829
0.517905
0.544659
0.550054
0.395633
0.506509
0.464938
0.445106
0.387618
0.338850
0.350358
0.399023
0.346958
0.340290
0.346923
0.203684
0.246069
0.276932
0.161708
0.247829
0.195654
0.106279
0.130487
0.174056
0.040187
-0.017974
0.087568
0.063130
-0.008769
0.121745
0.117524
0.026189
0.068282
0.032169
-0.014007
-0.069066
-0.012268
0.062531
-0.039661
-0.025481
0.105015
0.050738
0.059087
-0.056259
-0.026135
0.086505
0.056757
-0.054381
0.063775
0.037550
0.125032
-0.057603
0.087638
0.026407
0.090281
-0.024924
0.121372
-0.008928
0.122619
0.109730
0.133228
0.194367
0.122603
0.137223
0.263870
0.325784
0.187688
0.248716
0.207824
0.387064
0.368024
0.355971
0.366401
0.314815
0.260512
0.204495
0.330324
0.311812
0.259983
0.156924
0.160366
0.170339
0.075326
0.026908
0.042761
0.035604
-0.019127
-0.015754
0.040085
-0.074951
-0.020401
0.012579
0.012798
-0.080165
-0.141627
-0.091160
-0.180043
-0.116085
-0.054134
0.218692
0.314922
0.613850
1.009025
1.173248
1.238679
0.987364
0.831453
0.621938
0.370999
0.108407
-0.052524
-0.203589
-0.207227
-0.229373
-0.226076
-0.257026
-0.106437
0.003897
0.051916
0.024484
-0.066844
0.077753
-0.061157
0.068518
-0.063545
0.064615
-0.044563
0.137551
-0.000755
-0.004904
0.052309
0.140966
0.064086
0.235949
0.067834
0.178229
0.228882
0.203186
0.155467
0.292074
0.230668
0.334918
0.308277
0.407812
0.442128
0.438228
0.436412
0.391295
0.444504
0.337094
0.400271
0.411257
0.401595
0.368375
0.350328
0.439262
0.452590
0.413915
0.247310
0.330115
0.314642
0.223030
0.229662
0.287288
0.162317
0.176249
0.211562
0.123114
0.178605
0.127317
-0.009350
0.152205
0.053519
-0.032613
-0.067978
-0.086156
-0.103736
-0.051046
-0.014323
0.039617
-0.003821
-0.008885
-0.086927
-0.078298
0.001287
-0.063351
-0.024518
-0.104204
-0.038594
0.069400
-0.049258
-0.116689
-0.070405
-0.018389
0.019463
-0.064413
-0.028595
-0.000562
0.025806
0.015864
-0.092865
0.064902
-0.035613
0.001214
0.101445
0.105685
0.089869
0.025433
0.120575
0.064167
0.071496
0.158668
0.087483
0.097126
0.130824
0.159294
0.127514
0.243232
0.331155
0.305514
0.196613
0.282611
0.136650
0.273330
0.168607
0.146634
0.213272
0.113858
0.057158
0.102819
0.012062
-0.019976
0.008952
-0.083137
-0.016571
-0.112887
-0.116270
-0.100117
-0.113385
-0.054948
-0.158157
-0.127449
-0.168220
-0.240476
-0.118741
-0.258428
-0.039804
0.082179
0.224029
0.365274
0.664811
1.026541
1.101920
1.010073
0.972008
0.650334
0.468882
0.247432
-0.052635
-0.284117
-0.282124
-0.308224
-0.398371
-0.206767
-0.226191
-0.213681
-0.161896
-0.059873
-0.072931
-0.071041
-0.085855
-0.030754
-0.134058
-0.019062
0.065897
-0.015487
-0.035522
0.071310
-0.047372
-0.045769
0.043474
0.064662
0.137266
0.149198
0.136414
0.092232
0.104087
0.175177
0.204309
0.333591
0.345086
0.241506
0.371271
0.328019
0.340017
0.412532
0.411982
0.369191
0.266876
0.342099
0.353774
0.388600
0.283713
0.356860
0.311105
0.225547
0.224101
0.255356
0.247625
0.200182
0.282096
0.208355
0.102426
0.067895
0.169291
0.123743
0.040006
-0.037672
0.015762
0.005873
0.004207
0.047635
0.067920
-0.067539
-0.116871
0.034052
-0.036744
0.007058
-0.057639
-0.057713
-0.111747
-0.182428
-0.068556
-0.039906
-0.054653
-0.172274
-0.153771
-0.033215
-0.085210
-0.107316
-0.126185
-0.146170
0.006511
-0.102738
-0.153730
-0.072229
-0.172966
-0.067436
-0.095201
-0.018879
-0.134049
-0.067294
-0.034933
-0.127529
-0.034109
0.034992
-0.078362
0.052231
0.097574
0.055024
-0.024450
0.068550
0.214062
0.069483
0.214663
0.148358
0.145462
0.206593
0.183270
0.284829
0.166261
0.106952
0.120937
0.083030
0.193754
0.134479
0.117060
0.094633
0.048648
-0.024851
-0.081994
0.047426
-0.071075
-0.027636
-0.065291
-0.038848
-0.131633
-0.144201
-0.086070
-0.060563
-0.236315
-0.157873
-0.171895
-0.183434
-0.160709
-0.167485
0.121668
0.311179
0.558485
0.795535
0.936805
1.113402
1.101249
0.768105
0.669343
0.343870
0.110410
-0.021516
-0.195310
-0.248550
-0.396101
-0.388610
-0.333351
-0.270998
-0.174794
-0.186507
-0.031691
-0.062113
-0.027571
-0.139738
-0.140850
-0.150609
-0.030154
-0.026846
-0.059660
-0.118790
-0.078825
0.004645
0.076029
0.087624
0.139965
0.131198
0.083137
0.082226
0.061711
0.169638
0.121343
0.125737
0.277565
0.236654
0.310488
0.205395
0.288880
0.327447
0.399619
0.420822
0.315820
0.324168
0.271209
0.380234
0.287342
0.408725
0.303118
0.301558
0.231087
0.190118
0.313666
0.295801
0.205724
0.260442
0.191652
0.079147
0.025843
0.023082
0.038304
0.100519
0.088999
-0.054398
0.057902
-0.083915
0.012154
-0.128395
-0.076759
-0.002433
-0.068372
0.009966
-0.117495
-0.064464
-0.140570
-0.098799
0.023323
-0.107388
0.005835
-0.035806
-0.168839
-0.077984
-0.038293
-0.092592
-0.141653
-0.059570
0.018804
0.021654
0.028792
-0.000772
-0.035637
0.009315
0.010719
-0.006451
-0.121680
-0.133617
-0.041150
-0.116153
-0.037231
-0.050409
-0.022803
0.116832
0.110017
0.145923
0.028879
0.010389
0.190085
0.183894
0.186289
0.128646
0.208269
0.124165
0.206637
0.161085
0.185902
0.300507
0.270746
0.137181
0.142593
0.192817
0.179953
0.002592
0.021714
-0.031188
0.076129
0.091848
-0.043934
0.025154
-0.097902
-0.062115
0.018705
-0.022680
-0.041924
-0.036792
-0.181909
-0.147684
-0.251937
-0.138956
-0.156192
-0.087649
0.008988
0.196088
0.345285
0.542596
0.785968
1.086531
0.981136
1.007347
0.874533
0.639979
0.270508
-0.050286
-0.146726
-0.332297
-0.367358
-0.234158
-0.361919
-0.185205
-0.214123
-0.138614
-0.176815
-0.159902
0.016027
-0.131921
0.038594
-0.051762
-0.034775
-0.043988
-0.097917
0.051607
-0.010676
0.060276
0.101150
0.098343
0.077491
0.161366
0.033921
0.045199
0.147868
0.112095
0.267592
0.129009
0.170377
0.257438
0.241266
0.405466
0.306922
0.347397
0.316983
0.390630
0.388564
0.486604
0.426216
0.463447
0.308641
0.369740
0.284453
0.384836
0.396409
0.370089
0.227192
0.330070
0.234702
0.220554
0.273232
0.126135
0.132050
0.146504
0.153920
0.076498
0.081875
0.037744
0.141082
0.073178
-0.038082
0.042048
-0.091996
0.046771
-0.118759
-0.050872
0.000611
-0.126439
-0.046300
-0.097605
-0.015067
-0.092724
-0.053404
0.047106
-0.128168
0.008286
-0.070481
0.038066
-0.066613
-0.046599
0.066475
0.044285
0.056392
0.066167
-0.092935
-0.047302
0.028054
0.013277
0.058701
-0.059182
-0.033466
-0.046080
-0.075341
0.065961
0.000094
-0.035868
0.032106
0.017079
0.029689
0.153778
0.062716
0.252235
0.119007
0.223181
0.176793
0.243285
0.341966
0.306460
0.368585
0.251205
0.245656
0.306037
0.313834
0.247568
0.126321
0.133339
0.100780
0.070388
0.143547
0.045379
0.160685
0.122981
0.061075
0.101239
-0.024377
0.027392
0.013940
-0.073193
-0.045331
-0.175564
-0.074165
-0.087594
-0.140559
-0.230302
0.024660
-0.015777
0.218057
0.484285
0.743610
0.912663
1.202107
1.045726
1.052680
0.812797
0.476208
0.171910
0.113666
-0.078287
-0.311509
-0.300133
-0.274873
-0.177269
-0.092249
-0.016301
-0.020909
-0.008044
0.057541
-0.021742
0.091958
0.077786
0.109277
0.019867
-0.041266
0.136201
0.088518
0.128572
0.108425
0.206410
0.057156
0.183513
0.094080
0.096694
0.228674
0.233943
0.300437
0.179603
0.200643
0.330256
0.387972
0.293627
0.383427
0.408980
0.431331
0.332360
0.389547
0.379862
0.455226
0.499249
0.535209
0.354155
0.506206
0.501274
0.413450
0.378835
0.302866
0.302782
0.382692
0.344647
0.337655
0.271106
0.316191
0.225796
0.290730
0.104181
0.195470
0.209922
0.093456
0.118813
0.168574
0.087395
0.125907
0.072481
0.120959
0.024026
-0.054010
0.106367
0.001537
0.024340
0.058252
-0.068484
-0.010632
0.080543
-0.076008
-0.065777
-0.021090
-0.003690
0.081747
-0.035964
0.008319
0.066622
0.094621
0.038984
0.113425
0.115939
0.057879
0.118457
0.117965
0.011922
0.146850
0.131575
0.033670
0.126502
0.046431
0.024970
0.156588
0.152295
0.165153
0.114147
0.144567
0.270568
0.250946
0.215908
0.235190
0.238866
0.309264
0.331441
0.237892
0.257714
0.322945
0.320313
0.300826
0.206279
0.193228
0.222124
0.256089
0.250362
0.198905
0.166618
0.225487
0.118706
0.054777
0.022718
0.014595
0.047867
0.061741
0.116464
-0.024176
-0.059567
-0.027035
-0.144140
-0.183508
-0.223751
-0.098526
-0.128408
0.113317
0.304005
0.444855
0.766211
1.066978
1.166027
1.151788
1.067452
0.827460
0.497522
0.372614
0.137345
-0.074872
-0.172836
-0.223185
-0.211596
-0.246575
-0.079976
-0.040401
0.013309
-0.072257
-0.076319
0.084730
0.108954
0.067406
-0.027105
0.034206
0.164886
0.158329
0.135909
0.044019
0.159813
0.054417
0.166639
0.163464
0.223136
0.196542
0.136430
0.240133
0.267013
0.197980
0.337018
0.300861
0.427466
0.466397
0.356456
0.380421
0.356059
0.496961
0.507091
0.496894
0.454188
0.508330
0.485795
0.509420
0.547614
0.430603
0.464162
0.344075
0.365959
0.460297
0.341035
0.272634
0.378356
0.343001
0.321337
0.344780
0.177819
0.255623
0.176986
0.218034
0.120440
0.171044
0.095898
0.190845
0.071734
0.116715
0.120170
-0.000618
0.086294
0.101129
0.083826
-0.025779
-0.039799
0.103439
0.136318
0.091000
0.122974
0.063089
0.033587
-0.048706
0.062425
0.099176
0.106921
-0.011624
0.090844
0.080373
0.140027
0.028888
-0.041929
0.012528
0.014545
0.052928
-0.030791
-0.018074
0.016946
0.133371
0.160134
0.122543
0.077668
0.081004
0.051008
0.238254
0.135109
0.304724
0.155483
0.258492
0.248459
0.348472
0.390841
0.293014
0.411323
0.256355
0.238023
0.405749
0.400343
0.317531
0.192720
0.337038
0.307813
0.228085
0.182976
0.081533
0.123217
0.175170
0.114274
0.094043
0.147447
-0.027307
0.010382
-0.026735
-0.065193
-0.037378
0.052745
-0.129823
-0.001892
-0.199772
-0.134548
-0.118506
0.024499
0.211538
0.297864
0.537803
0.752014
0.986122
1.220350
1.244107
1.058751
0.805816
0.572091
0.175585
0.120778
-0.085156
-0.283086
-0.251233
-0.233947
-0.172742
-0.047335
-0.071179
-0.024332
0.080500
-0.073447
0.059132
-0.043680
0.065388
0.111388
-0.035585
0.070661
0.035168
0.118302
0.117492
0.023324
0.203621
0.231741
0.094227
0.090947
0.293125
0.201333
0.288565
0.343003
0.354753
0.395068
0.283634
0.387688
0.446472
0.460470
0.469149
0.326440
0.514463
0.470219
0.467862
0.506816
0.463655
0.534735
0.386494
0.483517
0.461407
0.433444
0.365127
0.494031
0.463639
0.390184
0.259953
0.317880
0.287630
0.181195
0.221444
0.281084
0.254258
0.098567
0.135602
0.192627
0.064635
0.114014
-0.012304
0.101936
0.117659
0.080354
0.000135
0.018280
-0.030871
-0.039866
0.060331
0.024303
0.015179
0.105656
0.061404
0.024860
0.065889
0.017577
-0.076862
0.002769
0.077901
-0.011364
-0.044518
0.016591
-0.017647
0.060707
0.063448
-0.020192
0.105189
-0.015611
-0.045928
-0.063201
-0.014424
0.120337
0.063676
-0.013351
0.022523
0.037304
0.162453
0.101105
0.131506
0.197625
0.131884
0.128116
0.270682
0.142252
0.162563
0.224590
0.347015
0.280123
0.254893
0.281715
0.319172
0.289225
0.329036
0.158274
0.174954
0.238325
0.163872
0.118245
0.039304
0.070039
0.072803
0.092152
0.001397
0.107531
0.102505
0.099739
0.015226
-0.051324
0.020539
-0.061555
-0.076194
-0.098851
-0.252383
-0.145974
-0.212398
-0.156075
-0.010554
0.167399
0.389959
0.615052
0.959672
1.043699
1.084082
1.066818
0.769998
0.665985
0.237045
0.038409
-0.144116
-0.196556
-0.265610
-0.255700
-0.310376
-0.113149
-0.195016
-0.104512
-0.140531
0.037622
-0.078262
-0.102098
-0.034869
0.096523
-0.051846
-0.029025
0.023098
0.058127
0.021696
0.091372
-0.004984
-0.002001
0.009264
0.128461
0.214485
0.173154
0.182850
0.226578
0.200969
0.193665
0.285103
0.311335
0.357464
0.272172
0.301518
0.265029
0.333475
0.358368
0.427250
0.425824
0.459579
0.486231
0.486411
0.317840
0.399357
0.292347
0.429085
0.316705
0.282692
0.269144
0.222743
0.210516
0.315089
0.273598
0.249318
0.129807
0.075769
0.040029
0.063546
0.118968
0.093225
0.064415
-0.027235
-0.000908
-0.039969
0.057342
0.030715
0.042413
-0.056882
0.003261
-0.131321
0.046503
-0.007753
-0.093190
0.001935
-0.049441
0.029140
-0.080603
-0.032900
-0.095936
-0.118213
-0.097582
-0.072330
-0.007348
-0.136968
-0.006697
-0.091771
0.028127
-0.032932
-0.048614
-0.108152
-0.084722
-0.053776
0.065757
-0.016974
-0.088808
0.079644
-0.000377
0.103030
-0.003595
0.112402
-0.013157
0.039356
0.174039
0.180365
0.244415
0.205165
0.210599
0.267507
0.303754
0.314090
0.308776
0.271631
0.209069
0.125197
0.147465
0.083457
0.135472
0.217568
0.073274
0.162588
-0.004070
0.007206
0.009401
-0.049179
0.048068
-0.069679
0.046412
-0.085039
-0.122431
-0.035171
-0.012532
-0.052972
-0.128987
-0.147094
-0.164538
-0.157963
-0.244332
-0.069154
0.004038
0.245257
0.560458
0.808317
0.921348
1.125578
1.141384
0.989797
0.785986
0.349151
0.227860
-0.013310
-0.174017
-0.327685
-0.375869
-0.417170
-0.304705
-0.310507
-0.225649
-0.163339
-0.022976
-0.148144
-0.042272
-0.085485
-0.118532
-0.143881
0.017572
-0.071870
0.024198
0.003510
-0.043506
0.073396
0.103194
0.058317
0.120431
0.086628
0.157843
0.022903
0.206040
0.080949
0.110369
0.247941
0.164708
0.293342
0.339720
0.227438
0.349212
0.342130
0.335953
0.436700
0.290528
0.299761
0.394459
0.410451
0.334456
0.448741
0.251588
0.298431
0.348618
0.209592
0.210091
0.210257
0.312619
0.300867
0.096032
0.119960
0.168884
0.220347
0.196366
0.102181
0.146816
0.011848
-0.036188
0.014491
-0.003164
-0.073567
0.031466
0.014361
-0.035623
-0.029919
-0.130060
-0.165350
-0.162679
-0.059543
-0.124908
-0.068335
-0.036489
-0.044646
-0.043653
-0.178601
-0.144797
-0.096507
-0.009500
-0.079971
-0.176921
-0.028966
-0.032364
-0.084897
-0.180743
0.010289
-0.134884
-0.001182
-0.089068
-0.162709
-0.150908
-0.091312
-0.055104
-0.072946
-0.137849
0.018198
-0.041272
0.038124
-0.040222
0.070846
0.053480
0.126699
0.049741
0.213207
0.087626
0.092540
0.239299
0.275950
0.152340
0.222968
0.114558
0.143633
0.246546
0.197492
0.138662
0.090869
0.039166
0.018808
0.103034
0.007365
0.072363
-0.005390
-0.105856
-0.130675
0.035076
-0.041267
0.022534
-0.094348
-0.012855
-0.122046
-0.223668
-0.284052
-0.315335
-0.209704
-0.315979
-0.248598
-0.095525
0.064049
0.312063
0.491881
0.746429
1.021100
1.118799
0.977388
0.791414
0.658332
0.349842
0.034493
-0.210728
-0.374538
-0.267783
-0.388556
-0.328461
-0.294620
-0.159360
-0.248901
-0.226151
-0.204574
-0.188027
-0.049225
-0.081988
0.015664
-0.080140
0.019664
-0.003273
0.053324
-0.027795
-0.024327
0.005044
0.022715
0.028110
0.143744
0.142194
0.052140
0.156087
0.204658
0.117482
0.109767
0.116283
0.272651
0.251466
0.256107
0.343287
0.246467
0.279993
0.378733
0.335700
0.333330
0.308400
0.377043
0.422176
0.267231
0.280516
0.339771
0.407817
0.277567
0.254792
0.192515
0.171361
0.253477
0.282534
0.161524
0.138376
0.053678
0.100631
0.173189
-0.016665
-0.008082
0.104365
-0.077436
-0.003488
0.054085
0.053826
-0.037386
0.017757
-0.046324
-0.013673
-0.113357
-0.156331
-0.038200
-0.028091
-0.096380
-0.105771
-0.163537
-0.098757
-0.099679
-0.115532
0.011201
-0.038944
-0.085143
-0.044477
-0.048673
0.028284
-0.013976
-0.021958
0.011685
-0.160759
-0.046653
0.035790
-0.048728
-0.139011
-0.033697
-0.094855
-0.044727
-0.103714
-0.086857
0.061333
-0.032570
0.034001
0.058117
-0.021425
0.172391
0.111977
0.238959
0.178999
0.260258
0.151319
0.140757
0.157786
0.145231
0.174432
0.304045
0.275623
0.294691
0.107935
0.086590
0.247002
0.133632
0.164106
0.045995
-0.013911
0.039318
0.007180
0.091209
-0.073975
-0.077158
-0.098838
0.051314
-0.004257
-0.131387
-0.065220
-0.187603
-0.178831
-0.114059
-0.203859
-0.279411
-0.127646
-0.107582
0.038997
0.288283
0.604111
0.872176
1.013728
1.047797
0.998347
0.967101
0.607830
0.324101
0.197318
-0.164790
-0.200413
-0.347676
-0.369599
-0.246974
-0.253360
-0.176834
-0.082485
-0.089153
-0.111913
-0.115947
-0.019855
-0.082951
0.067344
-0.087914
0.046945
0.082039
0.000573
0.041344
0.013294
0.138901
0.090865
0.130968
0.077447
0.043152
0.132215
0.224049
0.211604
0.187548
0.220448
0.175027
0.305961
0.229420
0.345217
0.254706
0.367461
0.419722
0.395693
0.428781
0.387018
0.363652
0.507677
0.505810
0.456161
0.450237
0.426111
0.303376
0.378246
0.427092
0.280895
0.384685
0.239708
0.271582
0.213803
0.199728
0.293122
0.090526
0.205937
0.115337
0.136840
0.065466
0.153934
0.134737
0.057550
-0.057789
0.027257
0.073995
0.011937
-0.066450
-0.053406
-0.111718
-0.054361
-0.079251
-0.078910
-0.035532
-0.109532
-0.114224
0.037920
-0.110527
-0.063867
0.034721
-0.030894
0.060744
-0.010220
-0.033529
-0.038514
-0.104515
0.027373
0.029661
0.035774
0.027708
-0.055259
-0.101990
-0.029684
0.085005
0.061390
-0.019779
-0.031157
-0.022916
-0.025822
0.062932
0.048287
0.061585
0.065262
0.153092
0.227934
0.183233
0.157524
0.173881
0.342876
0.245388
0.215654
0.362383
0.347916
0.328200
0.269575
0.237447
0.312335
0.156184
0.283507
0.240100
0.190017
0.124078
0.186740
0.186234
-0.021108
0.122236
0.076006
0.022138
0.036186
0.070037
0.022696
0.032830
-0.142301
-0.111460
-0.141903
-0.125666
-0.149795
-0.080341
-0.062900
0.069039
0.308245
0.516047
0.763560
0.873684
1.057135
1.091544
1.161406
0.882350
0.641444
0.293792
0.036713
0.028960
-0.261849
-0.174597
-0.327163
-0.330788
-0.158709
-0.218181
-0.169899
-0.002271
-0.112825
-0.063593
-0.028037
-0.011197
0.076102
0.055308
0.052261
0.073887
-0.030312
0.050603
0.101807
0.025264
0.076605
0.156858
0.057455
0.081669
0.170917
0.149663
0.199548
0.214599
0.244668
0.322710
0.336045
0.408340
0.345708
0.441356
0.439709
0.435917
0.509840
0.436370
0.475193
0.520128
0.477605
0.566781
0.388258
0.421580
0.428659
0.435704
0.371610
0.374951
0.337959
0.277111
0.254713
0.386238
0.210340
0.363888
0.199284
0.258574
0.218624
0.233448
0.141808
0.203130
0.133884
0.168669
0.072154
0.170197
0.152366
0.070822
0.054349
-0.023116
0.054989
0.072031
0.099478
0.020157
0.076788
-0.036965
-0.068284
-0.046076
0.100699
0.088652
-0.032541
-0.035183
0.066323
0.011834
0.119632
0.028494
0.014496
-0.027023
0.003478
0.025576
-0.033427
0.137064
0.031538
0.107754
0.114844
0.003076
0.091814
0.023449
0.006777
0.075396
0.021664
0.046318
0.148530
0.104965
0.089354
0.305457
0.278408
0.348420
0.363531
0.286774
0.406313
0.392074
0.291709
0.423974
0.255246
0.250067
0.216324
0.262354
0.257641
0.187286
0.283337
0.309402
0.159279
0.230176
0.185417
0.053397
0.158556
0.174692
-0.015343
-0.007038
0.035378
0.132131
0.133866
-0.052285
-0.079774
-0.128632
-0.065483
-0.135717
-0.180026
-0.171821
-0.108768
0.151656
0.279340
0.507889
0.771944
0.909163
1.164483
1.275291
1.064604
0.973297
0.769729
0.370913
0.188484
-0.026634
-0.087825
-0.313095
-0.187180
-0.194960
-0.167916
-0.040051
-0.064948
-0.033153
0.054396
0.018708
-0.013156
-0.029929
0.015615
0.153815
0.178095
0.087409
0.029557
0.114160
0.223009
0.190588
0.246354
0.255488
0.134436
0.125478
0.207825
0.172888
0.319041
0.259697
0.302219
0.274296
0.403599
0.318235
0.451539
0.365244
0.457188
0.419049
0.507650
0.397320
0.418074
0.425841
0.461322
0.469167
0.429451
0.511099
0.558823
0.441079
0.500380
0.481919
0.502129
0.324620
0.325961
0.389625
0.364962
0.382101
0.280138
0.264527
0.193105
0.166869
0.197231
0.162594
0.135992
0.153025
0.013849
0.029909
0.164808
0.084160
-0.039533
0.007185
-0.050272
0.094664
0.078323
0.043957
0.054097
-0.020858
0.019947
0.040538
0.105253
0.069785
0.034255
0.108790
0.034769
-0.006829
0.085241
0.133256
0.014948
-0.011853
-0.010242
-0.053938
0.140250
0.106214
0.061039
0.029614
0.086902
0.160935
0.112215
-0.001085
0.078809
0.140854
0.083963
0.218896
0.180145
0.260795
0.181413
0.178763
0.318743
0.165821
0.211552
0.390595
0.354933
0.282474
0.391396
0.387183
0.402472
0.339492
0.322389
0.202424
0.341982
0.260747
0.164363
0.279861
0.076085
0.049291
0.042429
0.109885
0.165564
0.055918
0.075145
0.070811
-0.046060
0.002370
-0.025138
-0.074623
-0.136502
-0.173972
-0.175588
-0.190959
-0.041906
-0.132630
0.045561
0.147718
0.528084
0.783027
0.866187
1.186433
1.077150
1.153501
1.001592
0.650188
0.349832
0.074066
0.026720
-0.140270
-0.181884
-0.275776
-0.279568
-0.261799
-0.189214
-0.090051
-0.057978
0.008544
0.000563
0.121027
-0.026977
0.103821
-0.009566
0.123763
0.083953
0.075396
0.064434
0.079285
0.095242
0.084989
0.244494
0.199812
0.187521
0.145854
0.147771
0.325886
0.242548
0.282639
0.226699
0.405326
0.311736
0.457776
0.305458
0.433061
0.436909
0.469609
0.412214
0.358999
0.411922
0.541273
0.512168
0.412541
0.484988
0.439371
0.314797
0.379987
0.282013
0.412525
0.430045
0.349031
0.343429
0.283139
0.196423
0.264911
0.231082
0.158225
0.131979
0.057889
0.116642
0.030065
0.124255
0.102617
0.086880
0.081133
0.054454
0.091855
0.003565
-0.032819
0.091391
-0.076211
-0.059529
-0.070310
0.060163
-0.087921
-0.003271
0.018304
-0.028375
0.036311
0.069941
0.078642
0.088788
0.078529
-0.100038
-0.092662
0.073661
-0.010790
-0.009906
-0.030525
0.093686
0.051559
0.101125
0.025242
-0.069312
0.099438
0.003806
0.132773
0.146478
0.101862
0.102388
0.201657
0.122931
0.123208
0.107571
0.145179
0.252666
0.333842
0.319452
0.314020
0.260931
0.366363
0.319367
0.230287
0.251920
0.167398
0.153045
0.225930
0.118260
0.115985
0.158324
0.057719
0.056609
-0.043650
0.079551
0.044556
-0.066789
-0.060764
-0.055527
-0.128202
-0.117749
-0.175828
-0.226157
-0.135283
-0.127744
-0.210442
-0.199229
-0.104312
0.132068
0.234041
0.558690
0.750370
1.091326
1.117836
1.157174
1.035284
0.790401
0.423702
0.092137
-0.134540
-0.219773
-0.267762
-0.217595
-0.193446
-0.168524
-0.240722
-0.145777
-0.000398
-0.048326
-0.046970
-0.068618
0.006835
-0.074648
0.081312
0.046256
0.078449
0.020909
0.125142
0.113365
-0.018991
0.160311
0.126907
0.068082
0.197401
0.234637
0.201894
0.199457
0.138582
0.327806
0.315444
0.356352
0.331458
0.274907
0.378802
0.303994
0.385975
0.333676
0.387515
0.437984
0.442376
0.374552
0.323149
0.289423
0.297142
0.450624
0.373042
0.359984
0.216011
0.237230
0.188590
0.181697
0.144023
0.128371
0.091818
0.107521
0.038629
0.157099
0.175915
0.011049
0.068010
0.017622
-0.050928
-0.061228
-0.075479
0.061012
-0.037163
0.014939
-0.114571
-0.109938
0.012860
-0.058350
0.040639
-0.121099
0.035324
-0.077721
-0.064558
-0.082314
-0.125667
0.008771
-0.118109
0.012280
-0.072878
-0.069601
-0.046884
-0.066945
-0.151752
-0.018196
-0.098217
-0.029104
-0.073096
-0.031221
0.020397
-0.017396
-0.060595
-0.018733
0.085386
0.092594
0.107599
0.144291
0.120966
-0.004871
0.212642
0.127460
0.161801
0.095349
0.252091
0.252827
0.228389
0.273499
0.262627
0.243004
0.128060
0.173482
0.161793
0.198011
0.119280
0.125790
0.114929
0.051715
0.115355
0.036521
0.070676
-0.044921
0.049902
-0.090828
-0.122905
-0.141413
-0.143417
-0.035546
-0.032368
-0.221729
-0.142612
-0.321835
-0.311442
-0.268087
-0.039950
0.024744
0.117966
0.529150
0.803481
0.923341
1.031084
1.064755
0.859443
0.726533
0.511330
0.083605
-0.044491
-0.201327
-0.294558
-0.253870
-0.357756
-0.339512
-0.245322
-0.259669
-0.166442
-0.050774
-0.127361
-0.029681
-0.038062
0.007971
-0.048689
-0.068770
-0.012522
-0.005655
-0.008527
0.042644
-0.014520
-0.050494
0.014799
0.121120
0.157260
0.066890
0.021467
0.045503
0.231637
0.271840
0.258671
0.321173
0.247788
0.280456
0.318743
0.400014
0.401222
0.238233
0.358221
0.396535
0.285311
0.266113
0.361331
0.257360
0.341429
0.272700
0.312366
0.332041
0.192964
0.335000
0.149981
0.247846
0.197921
0.188521
0.225254
0.062845
0.043282
0.007176
0.124012
0.086566
0.099393
-0.064801
-0.028285
-0.001518
-0.021055
-0.092963
-0.006048
-0.095150
0.017607
-0.144935
-0.034163
-0.023039
-0.100170
-0.056014
-0.031314
-0.142393
-0.037939
-0.003515
0.011947
-0.010095
-0.085802
-0.184923
-0.182493
-0.165657
-0.026691
-0.072468
-0.038184
-0.135001
-0.176358
-0.152501
-0.046885
-0.166467
0.023632
0.041872
-0.074424
0.038822
-0.010304
0.052748
-0.001609
-0.067974
0.032248
0.025518
0.166480
0.186915
0.159840
0.099627
0.115789
0.194238
0.174959
0.254781
0.184791
0.156819
0.165812
0.271598
0.143950
0.146891
0.076792
0.112643
0.025181
0.019240
0.044636
0.019387
-0.000710
0.065480
0.015015
0.036420
0.006370
-0.076383
-0.133336
-0.186399
-0.169000
-0.172770
-0.206348
-0.134217
-0.159502
-0.209417
-0.152226
-0.130204
0.103298
0.440456
0.549389
0.777340
0.976996
1.080354
0.961717
0.763145
0.477492
0.329575
0.042521
-0.259982
-0.384730
-0.454737
-0.276857
-0.354132
-0.289981
-0.200753
-0.228646
-0.224430
-0.071781
-0.095243
-0.136483
-0.129026
-0.022118
-0.003672
-0.036035
-0.029972
-0.043067
-0.001085
0.046864
-0.026022
0.088051
-0.036536
0.061036
0.066076
0.189036
0.113878
0.239436
0.153883
0.144166
0.292720
0.239062
0.246275
0.292239
0.250262
0.269001
0.274427
0.361135
0.421968
0.432584
0.394980
0.464292
0.461087
0.396751
0.409279
0.311070
0.383914
0.221231
0.264621
0.245797
0.179248
0.327602
0.191463
0.166411
0.218409
0.125508
0.131623
0.124700
-0.019599
0.034933
0.127529
0.037807
0.089686
0.076277
0.027248
-0.027480
0.019588
-0.151849
-0.010167
-0.140287
-0.150402
-0.121269
-0.062217
-0.153759
0.016503
-0.060000
-0.123967
-0.104105
-0.141075
-0.110612
-0.057774
-0.057860
-0.078984
-0.060066
-0.081352
-0.031648
0.053758
0.000478
-0.068901
-0.024062
-0.059392
-0.057058
-0.041594
0.028475
-0.040346
0.022431
0.079167
-0.053827
-0.027234
0.145836
0.170925
0.047148
0.076227
0.210108
0.225756
0.161117
0.179579
0.178584
0.189930
0.346577
0.161852
0.287840
0.248077
0.161023
0.217127
0.251528
0.280013
0.171777
0.230211
0.218081
0.090937
0.049482
-0.024497
0.109037
0.007792
0.063297
0.010935
-0.015201
-0.068852
-0.110989
-0.144391
-0.019214
-0.155980
-0.125772
-0.268097
-0.178383
-0.244832
-0.141714
0.024915
0.278730
0.549211
0.793204
0.901643
1.064275
1.204770
0.962319
0.719092
0.571217
0.210184
-0.013699
-0.253601
-0.249419
-0.318549
-0.370737
-0.224917
-0.201829
-0.201583
-0.125312
-0.119572
-0.027694
-0.118021
0.002128
-0.102162
0.069943
-0.026041
-0.063522
0.042516
0.060786
0.103195
0.107651
0.133405
0.120875
0.190841
0.148225
0.193986
0.210070
0.227001
0.295203
0.327763
0.222406
0.198217
0.362766
0.359470
0.277965
0.358491
0.467348
0.322245
0.439385
0.356488
0.450398
0.453713
0.419179
0.461114
0.414046
0.487265
0.447922
0.379069
0.401955
0.388575
0.418495
0.418836
0.343876
0.276719
0.162268
0.150936
0.277928
0.266868
0.196101
0.133238
0.213166
0.018223
0.062097
-0.027737
0.072840
0.055015
-0.067867
0.037301
-0.017668
-0.092464
0.091015
-0.080031
0.004735
0.068111
0.032732
-0.095979
-0.014131
-0.013406
0.052646
0.100185
-0.047492
0.078988
-0.087397
-0.030139
0.050367
0.005198
0.015911
-0.047206
-0.066017
0.008272
0.088319
0.044656
0.009623
-0.048056
-0.041566
0.133798
0.140284
0.042089
0.119960
0.095085
0.151486
0.214169
0.047971
0.131796
0.179786
0.142512
0.201240
0.328995
0.184064
0.204532
0.239021
0.328402
0.262859
0.355718
0.260527
0.341010
0.222873
0.287762
0.159059
0.299009
0.176778
0.136983
0.077632
0.123031
0.094844
0.000800
0.150448
0.143824
0.110146
0.037387
0.086996
0.081675
0.013668
-0.138979
-0.162956
-0.136399
-0.090416
-0.129674
-0.113146
-0.109932
0.066551
0.421184
0.605251
0.839778
0.983993
1.244397
1.123776
1.010198
0.857217
0.581510
0.248501
0.061683
-0.033114
-0.187375
-0.303101
-0.199489
-0.187139
-0.047371
-0.125898
-0.040744
-0.050660
-0.071233
-0.049991
-0.047728
0.144114
0.072241
0.118055
0.141313
0.144322
0.177307
0.009354
0.043680
0.175692
0.221190
0.139030
0.126089
0.217800
0.128444
0.153537
0.353650
0.269785
0.369037
0.282980
0.378034
0.455954
0.423050
0.500323
0.531091
0.376177
0.362873
0.549230
0.402785
0.394412
0.519769
0.408794
0.399890
0.454945
0.537250
0.481490
0.451264
0.312456
0.339580
0.444395
0.406091
0.389862
0.306018
0.197347
0.176789
0.268360
0.285983
0.207646
0.165088
0.157390
0.067671
0.169005
0.148480
0.095739
0.053710
0.066270
0.018043
0.138916
0.009429
0.130266
-0.057523
0.093591
0.026549
0.065099
0.002287
0.124327
-0.014889
0.015831
0.003065
-0.050487
0.063509
0.110204
0.061294
0.017041
-0.026826
-0.030447
0.143809
0.057563
-0.031332
0.005400
-0.000180
0.025535
0.149376
0.080245
0.017702
0.025005
0.022200
0.195566
0.236863
0.247031
0.164001
0.284473
0.223716
0.243324
0.204598
0.207433
0.334716
0.284006
0.324633
0.278498
0.236632
0.391053
0.295675
0.211416
0.334025
0.214498
0.286409
0.174793
0.155574
0.106062
0.126880
0.188867
0.197698
0.145934
0.039170
0.067888
0.152432
0.077219
-0.009212
0.045180
0.030417
-0.062843
-0.142537
-0.151560
-0.087898
-0.081384
-0.091077
-0.010068
0.267330
0.428677
0.753923
1.053880
1.161717
1.143310
1.174741
0.840881
0.604534
0.414598
0.083785
0.019233
-0.200494
-0.222850
-0.168879
-0.137911
-0.103593
-0.124188
0.021342
-0.021978
-0.005984
-0.026289
-0.039969
0.150277
0.154057
0.055883
0.128162
0.131621
0.033071
0.059361
0.212663
0.224718
0.137461
0.128826
0.217444
0.241284
0.140419
0.321514
0.282819
0.383116
0.247030
0.434409
0.451960
0.306062
0.389542
0.388932
0.509579
0.543658
0.511216
0.510755
0.507993
0.445589
0.528442
0.410025
0.523920
0.380729
0.543517
0.456841
0.496809
0.337473
0.475459
0.303969
0.277301
0.289352
0.341236
0.329079
0.219678
0.195412
0.247269
0.121754
0.225271
0.170069
0.212013
0.037972
0.029879
0.036428
0.112832
0.025886
0.064388
0.012361
0.045084
0.012161
0.068242
-0.061823
0.097936
0.005357
0.078563
0.127320
0.037107
0.068939
0.021683
0.105789
0.066865
0.037054
0.010174
0.073911
-0.042744
-0.052285
0.113151
0.071219
0.065115
0.030376
0.050665
-0.012138
-0.019829
0.106733
0.008213
0.097474
0.006630
0.107263
0.085482
0.192721
0.182811
0.224438
0.166765
0.175752
0.173037
0.373653
0.338881
0.320554
0.274138
0.224086
0.381922
0.321375
0.192123
0.357536
0.152491
0.256486
0.262789
0.186880
0.116804
0.162219
0.101153
0.106727
0.019177
0.115574
-0.003384
-0.037723
0.109036
0.078821
0.070003
-0.117303
-0.030295
-0.174031
-0.072534
-0.104808
-0.072611
-0.003176
-0.014687
0.283361
0.578400
0.759998
0.979354
1.067684
1.234992
1.050796
0.915343
0.465534
0.227312
0.061563
-0.084617
-0.248732
-0.229450
-0.279252
-0.137682
-0.142893
-0.061449
-0.099610
-0.095016
-0.090768
0.091469
0.073081
0.089749
0.024393
-0.041525
-0.017470
0.010469
-0.012594
0.154014
0.027967
0.134354
0.132526
0.082179
0.214189
0.204633
0.132379
0.213982
0.281097
0.222831
0.313444
0.398375
0.344252
0.389376
0.464989
0.465868
0.430421
0.509598
0.355431
0.431449
0.458814
0.494136
0.415381
0.337400
0.421811
0.333461
0.365846
0.415312
0.283396
0.394413
0.225659
0.355981
0.342731
0.184752
0.242744
0.296677
0.082394
0.079086
0.074359
0.125973
0.124482
0.117170
0.057124
0.070322
-0.064724
-0.045212
0.055296
-0.042324
0.037703
0.051562
-0.102897
-0.004918
0.019359
-0.010540
-0.076519
0.059236
0.067586
-0.019275
0.018615
0.036669
-0.083187
-0.101716
0.000716
-0.118404
-0.115084
-0.099110
0.042207
-0.045173
-0.073299
-0.043562
-0.079754
0.043786
-0.040370
-0.036846
0.053083
0.035269
0.085976
0.016548
-0.002188
0.093762
0.095566
0.104752
0.106289
0.259681
0.138191
0.219542
0.193535
0.199248
0.148530
0.285604
0.329466
0.231657
0.309354
0.313331
0.181593
0.126936
0.100026
0.102145
0.187213
0.098924
0.137374
-0.027279
0.056465
0.030406
-0.044618
-0.108656
-0.063510
0.030503
0.030083
0.028190
-0.199975
-0.092280
-0.259464
-0.177482
-0.148203
-0.110530
-0.076697
0.008173
0.315290
0.436512
0.717349
0.872375
1.056646
0.961067
0.982512
0.618116
0.477046
0.054801
-0.127868
-0.315542
-0.259073
-0.294334
-0.230108
-0.185812
-0.149854
-0.057095
-0.055265
-0.122264
-0.163117
-0.009682
-0.053645
-0.062793
0.037689
-0.115238
-0.041293
-0.080135
-0.088400
0.054290
0.110929
0.019808
0.007918
0.158189
0.135837
0.194295
0.225407
0.244510
0.278384
0.180522
0.255145
0.309351
0.290081
0.325469
0.301620
0.322098
0.390848
0.255216
0.436894
0.409853
0.390386
0.418993
0.322482
0.301398
0.382148
0.426032
0.387344
0.280104
0.245510
0.320073
0.294053
0.298022
0.286934
0.133102
0.193037
0.155390
0.023032
0.024113
0.032241
0.007176
0.010126
-0.073872
0.004479
0.011404
-0.112246
-0.083951
0.038653
0.009887
-0.171071
-0.008122
-0.133484
-0.095209
-0.154411
-0.138183
-0.026172
-0.163493
-0.100664
-0.062492
-0.140913
-0.040533
-0.060982
-0.086430
-0.130733
-0.096081
-0.024134
-0.170623
-0.055414
-0.159933
-0.091202
0.024965
-0.000695
-0.154898
-0.014890
-0.131089
-0.049096
0.037341
-0.121169
0.053298
0.062459
-0.037389
0.126418
0.102052
0.165457
0.152961
0.129257
0.219270
0.088788
0.090656
0.163807
0.200645
0.149942
0.212458
0.229668
0.248004
0.243946
0.132894
0.103567
0.088536
0.038950
0.043277
0.124708
0.003882
-0.007826
-0.119038
-0.099175
0.029454
-0.083527
-0.152926
-0.118548
-0.173103
-0.185975
-0.142185
-0.113638
-0.156018
-0.341593
-0.151889
-0.228932
0.054172
0.103713
0.316915
0.715142
0.919434
1.094987
1.087506
1.023380
0.815845
0.451219
0.136067
0.031214
-0.175421
-0.340666
-0.289387
-0.288446
-0.437427
-0.335008
-0.318838
-0.117659
-0.167730
-0.106014
-0.137537
-0.001754
-0.067520
-0.047379
-0.000744
-0.081160
-0.141194
0.028917
0.005279
0.047608
0.028859
0.049498
0.105206
0.061750
0.028597
0.182842
0.046557
0.084164
0.215877
0.225817
0.134251
0.268998
0.260368
0.350090
0.276627
0.288568
0.324877
0.416222
0.300086
0.289654
0.359708
0.392044
0.257556
0.311304
0.245901
0.281475
0.295178
0.221015
0.182911
0.240269
0.187291
0.147865
0.187011
0.065546
0.204182
0.054954
0.077376
0.116573
0.054118
-0.017491
0.063339
0.083116
-0.100373
-0.133649
-0.067507
-0.150922
-0.149206
-0.165077
-0.145100
-0.156731
-0.079410
-0.121517
-0.054475
-0.006945
-0.048550
-0.182205
-0.023702
-0.124078
-0.036582
-0.038073
-0.128457
-0.004104
-0.027754
-0.066918
-0.132817
-0.067595
0.007851
-0.119638
-0.138763
-0.184451
0.000039
-0.052813
-0.016566
-0.018333
-0.037532
-0.115448
0.027169
0.014189
0.016002
0.025063
0.096156
0.100539
0.108777
0.068376
0.208881
0.156362
0.123125
0.107673
0.150716
0.149152
0.293321
0.285986
0.302423
0.287933
0.260465
0.102387
0.080481
0.159979
0.165536
-0.001022
0.010679
-0.057921
-0.033960
-0.048054
0.066886
-0.056494
-0.134897
-0.023578
-0.001724
-0.161361
-0.193214
-0.146675
-0.169073
-0.205195
-0.230619
-0.252015
-0.231052
-0.187931
-0.093413
0.118610
0.233349
0.539363
0.791035
0.909126
1.077082
0.979923
0.892306
0.561455
0.450296
0.058717
-0.151083
-0.276779
-0.385452
-0.323649
-0.393753
-0.390376
-0.192802
-0.247754
-0.151835
-0.212016
-0.073439
-0.106711
-0.112838
-0.100287
0.027170
-0.057387
-0.142040
0.013035
-0.041144
-0.104153
0.032386
0.007577
0.054222
0.076889
0.062751
0.001551
0.156478
0.182177
0.137343
0.089270
0.291325
0.299808
0.312055
0.257734
0.365353
0.378285
0.354449
0.341547
0.268403
0.336157
0.317626
0.448276
0.404949
0.423152
0.303896
0.455365
0.335509
0.365055
0.387439
0.347883
0.191625
0.271627
0.346542
0.128329
0.112137
0.101478
0.178421
0.044292
0.097356
0.062921
0.111090
0.025152
-0.000247
0.053981
0.020182
-0.061917
-0.047178
-0.091988
-0.090688
0.018798
-0.072352
-0.031330
-0.056512
0.026233
-0.093334
-0.087171
-0.009173
0.015196
-0.152296
0.014084
0.006598
-0.045434
-0.066271
-0.031564
-0.084038
0.005589
-0.129590
-0.057321
0.006094
-0.019433
-0.142222
-0.136504
-0.045347
-0.088399
-0.053473
-0.033319
-0.101738
-0.031668
-0.017832
-0.019705
0.119019
0.048158
0.008126
0.052568
0.181367
0.162123
0.194211
0.207024
0.156871
0.297676
0.139663
0.223101
0.275507
0.344444
0.248641
0.234748
0.269375
0.275826
0.180337
0.174387
0.190029
0.185404
0.142463
0.150501
-0.019570
-0.024894
-0.053312
-0.044062
0.078538
0.012366
-0.076455
0.063673
-0.032460
0.002997
-0.128946
-0.182125
-0.124362
-0.186881
-0.237552
-0.257110
-0.151623
0.113638
0.257070
0.476508
0.671377
0.999570
1.037559
1.151069
0.967667
0.821494
0.527887
0.232994
-0.025141
-0.195663
-0.167929
-0.251999
-0.397472
-0.200224
-0.258350
-0.072222
-0.031080
-0.089956
-0.072238
-0.087729
-0.029730
-0.037939
0.072789
-0.027582
0.095285
-0.026437
0.016122
0.026124
0.087117
0.075591
0.007677
0.092915
0.144375
0.068058
0.117420
0.250409
0.244068
0.302199
0.167481
0.188265
0.288114
0.272127
0.368650
0.435188
0.438476
0.490595
0.423547
0.437741
0.472135
0.518725
0.383562
0.486922
0.381668
0.377676
0.482886
0.422940
0.303608
0.477202
0.443148
0.422140
0.325213
0.310417
0.187801
0.308197
0.286608
0.228664
0.163508
0.166208
0.152587
0.117370
0.037830
0.122961
0.111800
0.112683
0.011184
0.099509
-0.011401
-0.025354
-0.033875
0.061210
-0.026864
-0.018434
0.046004
-0.081646
-0.057614
-0.002575
-0.043574
0.066594
0.043977
0.084003
-0.041596
0.005295
0.064849
-0.059784
0.009092
0.019325
0.061314
0.110055
-0.043277
-0.061556
0.052346
-0.017353
0.050171
0.079900
0.044632
0.091764
0.132275
0.154311
0.139607
0.066566
0.091807
0.090860
0.196232
0.255329
0.141937
0.226914
0.291611
0.336531
0.301780
0.219778
0.306436
0.378198
0.419246
0.385136
0.216639
0.343111
0.316619
0.302102
0.169474
0.171237
0.203117
0.256923
0.130697
0.120166
0.197709
0.140643
0.170660
0.003485
-0.041898
-0.028665
0.068372
0.059070
0.004399
-0.091892
-0.065699
-0.218211
-0.065835
-0.198056
0.038311
0.047611
0.178520
0.446305
0.818437
1.027471
1.076307
1.130390
1.198766
0.990412
0.742381
0.352412
0.101601
-0.000522
-0.235725
-0.220193
-0.192406
-0.266779
-0.171348
-0.026538
0.044844
-0.066629
0.075307
0.056029
-0.006649
0.101853
0.031102
0.104992
0.033831
0.093733
0.157823
0.141728
0.080031
0.175212
0.126132
0.100514
0.226041
0.303331
0.302326
0.184444
0.314374
0.331840
0.323386
0.330430
0.342027
0.454918
0.356785
0.383746
0.454791
0.483020
0.460331
0.553414
0.578698
0.555668
0.537805
0.416560
0.404039
0.547573
0.439284
0.537029
0.455743
0.332470
0.345642
0.310677
0.342301
0.411423
0.230917
0.374594
0.352283
0.195143
0.126867
0.191592
0.194822
0.204159
0.107694
0.037304
0.187894
0.161783
0.058405
0.126091
0.050958
0.058826
0.059941
-0.003235
-0.026344
0.070419
0.071359
-0.004048
0.120806
-0.027334
0.126427
0.028022
0.010521
0.101464
0.004260
0.056717
-0.002109
-0.036160
0.118752
-0.022837
0.063429
0.081361
-0.041669
-0.006593
-0.034222
0.118620
0.114079
0.051336
0.122509
0.016820
0.175401
0.109914
0.062119
0.079836
0.101831
0.225881
0.164866
0.232019
0.331088
0.255267
0.261851
0.385438
0.273643
0.369618
0.355524
0.349561
0.291083
0.244245
0.224589
0.347778
0.252893
0.181789
0.268583
0.225886
0.099395
0.074449
0.160879
0.142080
0.124434
0.020193
0.135538
0.081998
0.131602
0.058704
-0.049387
-0.123061
-0.162632
-0.061035
-0.176304
-0.187179
-0.155258
0.103313
0.273363
0.371134
0.725920
0.874486
1.072412
1.151992
1.048762
0.884706
0.721623
0.422064
0.178112
0.018006
-0.108546
-0.183465
-0.254796
-0.145967
-0.104804
-0.068617
0.041339
0.094576
0.101404
0.009777
0.088738
0.144854
0.107592
0.177358
0.085278
0.048842
0.142962
0.214540
0.070167
0.125117
0.089607
0.123739
0.170383
0.178653
0.316285
0.241892
0.278037
0.294715
0.378447
0.399109
0.283030
0.403703
0.454040
0.374446
0.387413
0.440670
0.433125
0.463479
0.461151
0.427413
0.404351
0.425987
0.435990
0.407347
0.348101
0.419806
0.493334
0.424592
0.301017
0.301842
0.385215
0.348653
0.343765
0.342437
0.169805
0.213969
0.142550
0.146981
0.093335
0.098247
0.042368
-0.005784
0.060695
0.022372
-0.009620
0.061861
0.080089
0.073091
0.030503
-0.006064
0.019680
-0.011952
0.065235
0.113531
-0.013110
0.023696
0.006765
-0.007790
0.008462
0.103950
0.119091
-0.070595
0.048959
0.086058
0.057096
-0.046491
0.073264
-0.047813
0.051626
0.107041
-0.012408
-0.014150
-0.039084
0.127236
-0.022402
0.057605
0.033451
0.115918
0.133217
0.227612
0.190516
0.132507
0.301671
0.273409
0.260179
0.340579
0.247055
0.375156
0.310042
0.221757
0.294281
0.251658
0.281621
0.346670
0.208461
0.117911
0.236997
0.130191
0.174906
0.119450
0.171204
0.131289
0.045280
0.054669
0.056182
0.029202
0.062257
0.044776
-0.086009
-0.065504
-0.089611
-0.200197
-0.101917
-0.228808
-0.125699
-0.084299
0.133682
0.303257
0.516808
0.825671
0.933808
1.128910
1.169786
1.003062
0.728246
0.482561
0.260975
-0.014492
-0.093222
-0.248008
-0.212345
-0.272581
-0.282842
-0.210198
-0.082460
-0.077446
-0.014244
-0.069906
0.080716
0.042450
0.043721
-0.005876
0.052353
0.021207
0.139022
-0.029378
0.057736
0.116289
0.180745
0.134827
0.149355
0.173225
0.094497
0.133704
0.216064
0.176005
0.250443
0.331664
0.325492
0.220787
0.274606
0.331752
0.451090
0.403280
0.337197
0.372517
0.362643
0.389442
0.488218
0.420634
0.368584
0.424289
0.404813
0.286072
0.324842
0.420558
0.396482
0.242084
0.219823
0.299315
0.199643
0.272542
0.161947
0.147707
0.100496
0.080872
0.075967
0.109027
0.093966
-0.000856
0.010174
-0.020309
-0.094824
0.078507
-0.008471
-0.044262
0.059631
0.003012
-0.037169
-0.063342
-0.048550
-0.093639
-0.025942
0.056549
-0.097595
0.019000
0.032400
0.046574
-0.008929
-0.016253
0.019726
-0.079885
-0.132400
-0.079685
-0.025585
-0.085854
0.053697
-0.103397
-0.068856
-0.021170
0.021457
0.064515
0.034217
0.080625
0.047896
0.048086
0.128418
0.076451
0.019463
0.229378
0.204023
0.191449
0.162344
0.231323
0.306716
0.304676
0.314943
0.162270
0.294081
0.207984
0.174197
0.100700
0.217408
0.222041
0.040120
0.055680
0.173338
-0.016823
0.132423
-0.008459
0.082455
-0.052305
0.023146
-0.121496
-0.122787
0.011690
-0.097085
-0.099474
-0.101993
-0.093701
-0.302704
-0.296855
-0.262230
-0.045072
-0.033499
0.239334
0.521279
0.826812
0.958951
1.016707
1.060843
0.924107
0.771146
0.334500
0.251675
0.014904
-0.139276
-0.287557
-0.310105
-0.422358
-0.369282
-0.177713
-0.115963
-0.219904
-0.058358
-0.125019
-0.128403
0.000926
-0.075522
-0.020904
-0.138205
0.011226
0.072058
-0.039971
0.000971
0.065187
-0.044641
0.119075
0.018012
0.110193
0.085637
0.147049
0.171971
0.105597
0.187945
0.134180
0.304563
0.259159
0.334154
0.379460
0.361193
0.328470
0.405781
0.295686
0.438672
0.453891
0.441675
0.264930
0.370904
0.331118
0.246341
0.409878
0.360138
0.204724
0.317933
0.210061
0.323736
0.137838
0.203947
0.153791
0.119298
0.189723
0.035813
0.077521
0.137586
0.059058
-0.083162
-0.029199
0.052252
-0.058995
0.000021
-0.012462
-0.124727
0.005331
-0.152599
-0.026880
-0.114082
-0.043563
-0.129693
-0.018711
-0.024811
-0.168393
-0.057354
-0.163257
-0.110752
-0.082706
-0.082231
-0.037650
-0.043607
-0.009653
-0.097777
-0.109549
0.000092
-0.168238
-0.073862
-0.119821
0.008695
-0.052520
-0.078340
0.010967
-0.010323
-0.029167
-0.114985
-0.116714
-0.088093
0.004220
-0.029202
-0.030370
0.042971
0.045408
0.089568
0.153384
0.255118
0.122525
0.169091
0.294893
0.191932
0.294240
0.190076
0.276654
0.171441
0.071890
0.092109
0.147373
0.061349
0.139998
-0.053202
-0.012215
0.005995
0.027428
0.008056
-0.075382
0.017803
-0.135646
-0.009623
-0.154071
-0.147139
-0.260444
-0.189614
-0.265601
-0.227537
-0.166077
-0.191702
-0.161707
0.120647
0.155189
0.446160
0.793975
0.869973
1.093022
0.970132
0.854419
0.591764
0.291975
0.062773
-0.088812
-0.364914
-0.333060
-0.446541
-0.391393
-0.333594
-0.209911
-0.269152
-0.192397
-0.055505
-0.190508
-0.192499
-0.054405
-0.124979
0.022120
-0.132607
-0.049693
-0.032658
-0.040123
-0.035234
-0.083730
-0.047802
0.061038
0.133180
0.063528
0.100868
0.128941
0.204817
0.109671
0.152761
0.107246
0.119919
0.234676
0.281445
0.335677
0.305205
0.214839
0.364642
0.260205
0.256299
0.256099
0.266483
0.294160
0.327271
0.302202
0.266648
0.352760
0.235403
0.343849
0.357162
0.248215
0.220278
0.199335
0.269455
0.175898
0.072649
0.066246
0.034882
0.050158
0.031000
0.048369
-0.054530
0.043776
-0.043428
0.000272
-0.057396
-0.002898
-0.116327
-0.136485
-0.151659
0.009277
0.002477
-0.008752
-0.102043
-0.150435
-0.114183
-0.039535
-0.007268
-0.014955
0.008257
-0.155343
-0.160243
-0.145328
-0.131748
-0.036775
-0.136795
-0.061005
-0.144385
-0.062745
-0.084286
0.002637
-0.169952
-0.094344
-0.130953
-0.142827
0.028852
-0.057583
-0.023906
-0.103864
0.010495
-0.009597
0.049516
-0.044885
-0.021783
0.082746
0.178250
0.176939
0.168940
0.118902
0.223215
0.118019
0.262314
0.207704
0.225881
0.299808
0.257457
0.285908
0.227730
0.144212
0.126356
0.115269
0.037079
0.056050
-0.024331
0.031746
-0.009848
-0.094067
-0.044278
-0.108855
-0.018844
-0.110544
-0.056659
-0.128287
-0.071342
-0.095641
-0.265118
-0.241496
-0.317407
-0.306912
-0.154313
-0.095331
0.190380
0.274873
0.552509
0.929546
1.100672
1.041799
1.038259
0.870698
0.554048
0.425756
0.046990
-0.020331
-0.212180
-0.299535
-0.330511
-0.259140
-0.317469
-0.282499
-0.181603
-0.190307
-0.104628
0.034017
-0.026201
-0.024961
-0.042755
-0.036004
-0.035246
0.072361
-0.013816
0.050396
-0.065749
-0.023345
-0.024896
-0.002068
0.028421
0.102812
0.064201
0.155140
0.207833
0.268943
0.269252
0.337462
0.207112
0.219753
0.390875
0.406127
0.320269
0.288890
0.304418
0.289448
0.459165
0.469197
0.490921
0.378376
0.397521
0.429913
0.427176
0.476591
0.390478
0.437475
0.419608
0.413848
0.246938
0.360473
0.170953
0.299436
0.124188
0.258993
0.183888
0.155277
0.107934
0.097328
0.085031
0.096981
0.055778
-0.030398
-0.009070
0.030518
-0.002829
-0.089032
0.042716
0.040409
-0.061979
-0.094085
0.046510
-0.060601
-0.069317
0.049733
0.038709
-0.068197
0.059913
-0.093853
0.053103
0.047586
-0.025703
-0.089918
-0.098066
-0.078514
0.033467
-0.013094
-0.007279
0.077577
-0.060484
-0.072825
-0.007108
-0.045445
-0.035704
-0.019360
-0.036576
-0.016702
0.036777
0.176054
0.168895
0.164153
0.157013
0.109534
0.133374
0.111480
0.292589
0.291476
0.320596
0.237877
0.347236
0.293480
0.214681
0.360876
0.216734
0.219986
0.202221
0.298930
0.134132
0.223765
0.217524
0.182586
0.171603
0.133327
0.131979
0.033976
0.129503
0.046456
0.096072
0.104468
0.059336
-0.038177
-0.028701
-0.079096
-0.099119
-0.216881
-0.161539
-0.146697
-0.011709
0.053403
0.151793
0.373175
0.731893
0.878178
1.096616
1.217238
1.131218
0.878373
0.720468
0.362275
0.061905
-0.005466
-0.137388
-0.329473
-0.207711
-0.308505
-0.094916
-0.037082
-0.049419
0.045333
-0.071442
-0.038424
-0.058330
0.078730
0.006360
0.104846
0.070592
0.038596
0.167691
0.160868
0.112732
0.046932
0.056439
0.189442
0.215100
0.288522
0.305177
0.214339
0.193191
0.256012
0.377707
0.342217
0.370960
0.458949
0.335278
0.370093
0.381161
0.522889
0.514091
0.558421
0.405319
0.536568
0.450196
0.488385
0.429307
0.507972
0.419678
0.476430
0.492372
0.316678
0.481703
0.294446
0.273354
0.353649
0.265920
0.372024
0.285926
0.313571
0.137128
0.107829
0.254747
0.194733
0.034834
0.035539
0.020550
0.042022
0.146196
-0.015060
0.068463
0.129918
0.135357
0.121040
-0.048786
0.024014
0.004419
0.027299
0.126176
0.000714
0.059337
0.106218
0.089195
0.126266
-0.042298
0.119264
-0.050527
0.092259
0.091733
-0.014302
0.125794
-0.015227
0.137890
0.004878
0.098698
0.093781
0.002800
0.036053
0.026289
0.183301
0.117481
0.214355
0.083933
0.188025
0.236629
0.181432
0.291625
0.179756
0.209845
0.258383
0.257453
0.291763
0.431222
0.365815
0.362590
0.355870
0.313050
0.329249
0.359781
0.279658
0.182402
0.329236
0.128199
0.226241
0.220828
0.071984
0.191601
0.202757
0.116062
0.081322
0.137666
0.024158
0.152268
0.133097
0.018436
0.057762
-0.111275
-0.097768
-0.033964
-0.077042
-0.074619
0.109478
0.176237
0.406281
0.652235
0.872130
1.176396
1.271994
1.126300
1.092637
0.722466
0.571452
0.161992
0.113815
-0.042701
-0.192187
-0.306997
-0.130270
-0.164348
-0.008211
-0.039194
0.035251
0.017249
0.103374
0.033330
0.168082
0.155202
0.147583
0.060371
0.183987
0.094586
0.190608
0.206926
0.257339
0.081875
0.136883
0.193625
0.295957
0.223864
0.192042
0.372078
0.247460
0.351294
0.417655
0.329067
0.494922
0.405861
0.381054
0.389476
0.506525
0.553878
0.541943
0.446882
0.595167
0.407187
0.464371
0.524270
0.392065
0.379866
0.467526
0.467986
0.366430
0.423970
0.382741
0.356717
0.370674
0.281286
0.305585
0.220784
0.155032
0.246966
0.099027
0.150315
0.069211
0.095971
0.064436
0.151867
0.135570
0.126082
0.045132
0.073272
0.027950
0.143846
0.044948
-0.021718
0.129292
-0.036473
0.001221
-0.015689
0.017378
0.007839
0.103375
0.084819
0.152494
0.023860
0.042037
0.054320
0.140647
0.073711
0.045093
0.052176
0.153149
0.081701
0.046364
0.083611
0.174399
0.140323
0.009392
0.077414
0.167657
0.067881
0.115048
0.106441
0.083788
0.142992
0.217005
0.285664
0.264627
0.216753
0.369224
0.237616
0.256864
0.411730
0.375058
0.335907
0.347571
0.376784
0.194581
0.276341
0.226438
0.138267
0.246108
0.236133
0.202171
0.062641
0.085047
0.177237
0.124838
0.025198
-0.028702
0.005769
0.086966
0.001724
0.076333
-0.132840
-0.184420
-0.093737
-0.181282
-0.045250
0.023491
0.098033
0.260814
0.558497
0.865537
1.079974
1.126916
1.142929
1.128751
0.886646
0.586019
0.218270
-0.036230
-0.193585
-0.254180
-0.311234
-0.254561
-0.145678
-0.204513
0.007040
-0.033254
0.010497
-0.060846
-0.037156
-0.050115
0.005033
0.109336
0.152406
-0.023888
-0.004604
0.126694
0.117779
0.065834
0.211711
0.141459
0.187410
0.147702
0.131281
0.310361
0.337487
0.365445
0.234074
0.285051
0.375659
0.259731
0.392983
0.361708
0.397898
0.352739
0.371078
0.461889
0.435870
0.416332
0.447505
0.434896
0.527111
0.424300
0.476933
0.368107
0.346963
0.312642
0.380740
0.360660
0.400408
0.383051
0.327824
0.265919
0.297178
0.199874
0.166167
0.101188
0.183145
0.131402
-0.004341
0.109009
0.154573
0.049831
0.058989
0.070108
-0.069377
-0.053912
0.081273
0.062879
0.093426
-0.034341
0.076989
0.069022
0.071488
-0.007575
0.013385
0.087927
0.024721
-0.093453
-0.040344
-0.067275
0.047067
-0.086180
-0.006785
0.042518
0.017703
-0.055710
-0.072274
-0.049421
-0.009509
0.107664
0.066928
-0.031314
0.099776
0.039358
0.112169
0.052758
0.114570
0.223504
0.178836
0.245148
0.161088
0.197704
0.277548
0.347559
0.258401
0.239754
0.300347
0.334891
0.253423
0.208288
0.231622
0.150203
0.203522
0.232764
0.172617
0.190854
0.084367
0.143115
0.164366
0.103843
-0.027222
0.065052
-0.004383
0.009685
-0.024616
0.069965
-0.121893
-0.061333
-0.114092
-0.215082
-0.178876
-0.232366
-0.110669
-0.172845
0.076250
0.268919
0.390000
0.798318
1.024883
1.137750
1.185601
1.013720
0.866526
0.546741
0.143644
-0.096199
-0.103133
-0.306990
-0.363606
-0.389255
-0.333703
-0.237168
-0.090728
-0.059172
0.019499
-0.014266
-0.073764
-0.026094
0.022283
0.066050
-0.086867
-0.060258
-0.029703
-0.017358
0.100043
0.074591
-0.042971
0.072619
0.088385
0.083169
0.207254
0.241580
0.175073
0.199784
0.153894
0.289054
0.198742
0.287104
0.316770
0.302883
0.380697
0.358797
0.414862
0.417341
0.472098
0.437245
0.400631
0.406731
0.401492
0.468975
0.355455
0.393365
0.287254
0.377086
0.235839
0.198806
0.223155
0.202877
0.149793
0.139695
0.264935
0.165187
0.116444
0.046432
0.171141
0.099395
0.077232
-0.044864
-0.001716
0.050702
-0.101472
0.023878
0.028103
-0.135332
-0.149885
-0.153992
-0.074575
0.010378
-0.095862
-0.078020
-0.139019
-0.034464
-0.057531
-0.019104
-0.138411
0.014084
-0.073083
-0.144441
-0.084204
0.009482
0.027678
-0.158995
0.026484
0.022935
-0.037832
-0.060046
-0.066456
-0.072433
-0.116664
0.033079
-0.036187
0.048029
0.032996
0.009294
0.042561
-0.012076
0.071988
0.147858
0.181655
0.209106
0.054247
0.251029
0.179968
0.110053
0.139274
0.175536
0.153106
0.264512
0.286670
0.269709
0.218492
0.225115
0.064296
0.125950
0.009687
0.137303
0.021100
0.096464
0.056176
-0.038842
-0.079405
-0.067068
-0.055064
-0.052804
-0.091474
-0.038399
-0.207010
-0.168717
-0.243234
-0.242491
-0.275769
-0.338624
-0.165623
-0.076146
0.105892
0.233078
0.523845
0.778687
0.915782
1.015968
1.072217
0.793456
0.745632
0.413839
0.051591
-0.007576
-0.260523
-0.261808
-0.288046
-0.412229
-0.317041
-0.365251
-0.280834
-0.196486
-0.079563
-0.148666
-0.088266
-0.113693
-0.032448
0.021469
-0.078484
-0.144421
-0.129827
-0.072083
-0.069070
0.068980
0.000935
0.031524
-0.057020
0.004171
0.126716
0.098107
0.199645
0.141011
0.138243
0.270746
0.219872
0.309979
0.294867
0.184725
0.238082
0.240355
0.295485
0.325223
0.402938
0.397669
0.362616
0.350811
0.304912
0.378179
0.357829
0.376809
0.381774
0.197732
0.297737
0.194685
0.306867
0.297314
0.258108
0.072956
0.147040
0.090911
0.009135
0.022377
-0.036973
-0.022960
0.098633
0.054967
-0.115310
0.055569
0.034234
-0.154905
-0.109941
-0.042862
-0.186865
-0.147668
-0.134836
-0.028135
-0.090102
-0.170922
-0.165709
-0.112209
-0.160800
-0.003280
-0.165656
-0.145506
-0.185160
-0.011818
-0.045277
-0.148123
-0.120251
-0.068457
-0.064412
-0.172722
-0.149194
-0.148024
-0.009068
-0.061411
-0.133064
-0.033461
-0.142483
-0.153812
-0.032758
-0.062321
-0.033699
-0.049700
0.014244
-0.014817
-0.045020
0.161171
0.097853
0.065668
0.219948
0.086719
0.186229
0.127754
0.296548
0.297553
0.207167
0.137821
0.237506
0.233439
0.161165
0.212680
0.190970
0.114707
0.134035
0.049824
0.088582
0.092215
0.086175
-0.094910
-0.009893
0.002493
-0.120539
-0.081651
-0.126011
-0.116029
-0.093119
-0.211663
-0.124951
-0.225854
-0.169511
-0.249572
-0.215822
-0.044394
0.133639
0.381151
0.467304
0.861739
0.924767
1.140999
0.962648
0.879479
0.707057
0.382325
0.063621
-0.131964
-0.248975
-0.255051
-0.414550
-0.325935
-0.400093
-0.198499
-0.257091
-0.148019
-0.099987
-0.149150
-0.085506
0.011259
-0.092727
-0.145134
-0.028566
-0.106266
-0.005041
-0.048980
0.030070
-0.083650
-0.014513
0.058725
0.150038
0.062923
0.042290
0.019696
0.146671
0.064971
0.265923
0.191855
0.297585
0.331198
0.303478
0.258959
0.366751
0.338819
0.374698
0.367880
0.443410
0.448748
0.364955
0.311774
0.339545
0.274246
0.263367
0.412276
0.287174
0.381998
0.366102
0.228399
0.265380
0.315529
0.248261
0.143102
0.271429
0.160988
0.197584
0.171427
0.097866
0.052325
0.005980
0.090233
0.110998
-0.000132
-0.077288
-0.019459
-0.088837
-0.069849
-0.115188
-0.006548
-0.074464
-0.075150
-0.024711
-0.141457
0.023732
-0.018738
-0.041183
-0.051788
-0.117760
0.014508
-0.058872
-0.077067
-0.004816
-0.019491
0.040098
-0.038337
-0.124504
-0.128286
-0.118781
-0.137683
-0.073366
-0.000037
-0.063563
-0.129256
-0.129229
0.008390
0.036909
-0.088974
-0.021486
0.025372
0.005531
0.096767
0.144976
0.140995
0.214781
0.179428
0.188486
0.292798
0.124066
0.145615
0.332456
0.228424
0.286812
0.228610
0.339393
0.296610
0.162985
0.178608
0.148435
0.210503
0.035619
0.165712
-0.008680
-0.032290
0.034807
0.096124
0.073171
0.088635
-0.069641
0.051576
-0.082513
-0.138032
0.021814
-0.188463
-0.191557
-0.266996
-0.275191
-0.170419
-0.271158
-0.028022
-0.005799
0.214901
0.499653
0.814872
0.914900
1.190393
1.179089
0.943478
0.756180
0.494052
0.206009
0.131411
-0.220894
-0.163029
-0.371325
-0.324385
-0.313880
-0.194524
-0.133879
-0.137846
-0.007175
-0.134002
-0.066959
0.076705
0.066126
-0.089343
0.107014
0.002031
0.035119
0.089205
0.065508
0.164771
0.089561
0.126831
0.083059
0.230596
0.230875
0.095587
0.219787
0.292101
0.258220
0.316313
0.335376
0.233286
0.356887
0.430723
0.335864
0.384679
0.346908
0.467673
0.406319
0.525102
0.460349
0.410345
0.380005
0.349280
0.443637
0.369123
0.420249
0.295616
0.450172
0.286721
0.375125
0.232784
0.281768
0.311848
0.246785
0.244016
0.285815
0.120938
0.176969
0.180366
0.182805
0.128957
0.172406
-0.035497
-0.033377
0.052278
-0.004311
0.040379
-0.064812
0.022229
0.080391
-0.066313
-0.018959
-0.073138
-0.053640
0.033126
0.096675
0.059754
-0.086093
0.004287
0.024914
-0.012793
-0.079125
0.051125
0.053105
-0.005616
0.006800
0.027937
-0.066560
-0.028540
0.013102
-0.040083
0.133406
0.110957
0.133846
0.131155
0.045761
0.054388
-0.001566
0.164691
0.098648
0.088048
0.207932
0.135011
0.137789
0.326525
0.330455
0.351311
0.220203
0.253449
0.384658
0.380689
0.273304
0.274127
0.277318
0.270141
0.181510
0.337162
0.283511
0.232845
0.274520
0.083455
0.139662
0.123793
0.026725
0.114182
0.053798
0.099124
0.088705
-0.002404
0.087631
0.053000
0.066564
-0.044605
-0.130484
-0.200190
-0.039873
-0.062270
0.029981
0.051130
0.260782
0.634161
0.855826
1.103739
1.115866
1.247208
1.125856
0.920086
0.489333
0.261121
0.154270
0.007174
-0.258083
-0.262783
-0.301193
-0.158625
-0.123602
-0.116051
-0.069144
-0.059935
-0.056296
-0.006460
0.095467
0.091641
0.168159
0.115775
0.086591
0.082013
0.019497
0.073437
0.132411
0.126648
0.103121
0.110374
0.112289
0.291050
0.211157
0.316328
0.284888
0.277787
0.293344
0.318039
0.299180
0.463390
0.384267
0.351833
0.424536
0.543018
0.411610
0.451070
0.500311
0.503917
0.553749
0.402689
0.551709
0.559095
0.511717
0.368020
0.351840
0.367123
0.361448
0.395132
0.410190
0.373076
0.333556
0.266150
0.225926
0.235124
0.223009
0.095740
0.248710
0.143787
0.045807
0.084912
0.111195
0.112185
0.136005
0.103721
0.094558
0.072539
0.014927
0.113316
0.062591
0.052790
-0.016207
0.127844
-0.009056
0.113602
-0.029714
0.113815
0.031621
0.053936
-0.027857
0.021637
0.112685
0.149602
0.115901
-0.004343
0.037641
0.149148
0.001590
0.147177
0.077215
0.172965
0.103632
0.110332
0.184429
0.065367
0.100283
0.094036
0.239221
0.226289
0.252007
0.294782
0.194689
0.387005
0.236041
0.407364
0.255001
0.421857
0.371230
0.418091
0.384891
0.422286
0.253524
0.211216
0.192126
0.345136
0.322865
0.293150
0.221619
0.090753
0.173450
0.109809
0.156163
0.048342
0.189617
-0.004272
0.120910
0.072527
-0.011622
0.057529
-0.078143
-0.099968
-0.035364
-0.025120
-0.110326
0.111928
0.255410
0.461146
0.669375
0.859875
1.023576
1.136066
1.063960
0.906239
0.791022
0.447487
0.199450
-0.066464
-0.086973
-0.303228
-0.286445
-0.150246
-0.046044
-0.091694
0.034064
0.094342
-0.043688
0.026925
0.158883
0.085778
0.150459
0.158167
0.140755
0.194407
0.154973
0.040760
0.098325
0.094084
0.101795
0.146591
0.157199
0.168432
0.250769
0.230885
0.245307
0.225611
0.409293
0.281495
0.408366
0.295630
0.492421
0.431544
0.534860
0.363927
0.510519
0.534480
0.514119
0.495684
0.487480
0.460512
0.480105
0.416232
0.379295
0.508944
0.351984
0.381565
0.345502
0.426501
0.387156
0.204235
0.296980
0.236669
0.138248
0.196035
0.170663
0.244709
0.093838
0.225660
0.116354
0.163798
0.026780
0.012416
0.141337
0.100513
0.096315
0.021242
0.084886
0.023960
0.137973
0.048524
0.025510
-0.044983
0.110014
0.072421
0.014447
0.080997
-0.004147
-0.029787
0.002277
-0.036130
0.138397
0.104368
0.036475
0.020090
0.084075
-0.031259
-0.043557
-0.005486
0.012445
0.163608
0.015397
-0.005506
0.012773
0.081269
0.193398
0.051325
0.092701
0.124968
0.299652
0.330428
0.341657
0.362274
0.232270
0.252566
0.287118
0.391112
0.408432
0.337780
0.257138
0.205496
0.209472
0.297371
0.262966
0.209569
0.248006
0.151022
0.100469
0.133176
0.125319
-0.015087
-0.025139
-0.033796
-0.043858
-0.055441
0.106531
-0.092825
-0.049177
0.014264
-0.111857
-0.197541
-0.040950
-0.008157
0.025041
0.058252
0.293698
0.512136
0.855685
1.135726
1.150435
1.088297
0.961598
0.639408
0.458870
0.134623
-0.009215
-0.205633
-0.320946
-0.351764
-0.194623
-0.124100
-0.160556
-0.157115
-0.128807
0.061257
-0.053695
0.063354
0.014958
0.083593
-0.006960
0.040771
0.109225
0.107755
0.141172
0.091915
0.154154
0.200106
0.175719
0.056627
0.101142
0.232228
0.125504
0.320381
0.301492
0.367634
0.254034
0.358709
0.395522
0.334817
0.358904
0.400783
0.451844
0.434357
0.382049
0.485024
0.479931
0.375916
0.424645
0.345882
0.332794
0.426488
0.293902
0.302202
0.412744
0.340862
0.335005
0.369430
0.313802
0.278897
0.264356
0.135746
0.140479
0.090444
0.057665
0.051766
0.113229
0.046158
0.055489
-0.030534
0.038517
0.062881
-0.092640
0.084051
0.002983
0.072885
0.048899
-0.114213
-0.033033
-0.057532
-0.091231
0.052528
-0.051889
-0.042397
0.059837
-0.042769
-0.027422
0.056410
0.015113
0.009714
0.032913
0.040146
-0.057179
-0.117645
0.065068
-0.095806
0.060873
0.083914
0.070914
0.039662
0.024718
0.014225
0.002527
-0.030999
0.034746
0.156981
0.024286
0.057671
0.109407
0.239607
0.205912
0.178029
0.286009
0.317952
0.264676
0.265698
0.294294
0.212027
0.321870
0.142231
0.258647
0.144490
0.078653
0.142207
0.139084
0.108898
0.115263
-0.022221
0.082374
0.066845
0.070164
-0.004440
-0.006452
-0.086839
-0.058396
0.016158
-0.188136
-0.186575
-0.284476
-0.146189
-0.155013
-0.089878
-0.063390
0.187343
0.381907
0.683020
0.872256
1.048549
0.982128
1.090552
0.776413
0.538036
0.248884
0.071796
-0.129470
-0.224671
-0.275141
-0.392807
-0.231396
-0.296706
-0.269429
-0.207794
-0.186920
-0.073998
-0.043964
-0.111957
-0.036026
-0.075113
0.003793
-0.065185
-0.027883
-0.068776
-0.017493
0.034431
-0.057907
-0.031240
-0.014777
-0.009262
0.127428
0.122292
0.193640
0.133863
0.190482
0.152046
0.240951
0.323829
0.276438
0.378949
0.203942
0.309129
0.332307
0.386601
0.391524
0.458760
0.317826
0.375063
0.274338
0.307428
0.356388
0.335084
0.284597
0.235709
0.257615
0.336882
0.273522
0.174120
0.197275
0.276447
0.199295
0.036158
0.117680
0.112426
0.038827
-0.006136
0.035407
0.056948
-0.091046
-0.041797
-0.039318
0.020948
-0.042391
-0.042956
-0.167386
-0.089315
-0.161414
-0.052452
-0.033394
-0.161981
-0.042758
-0.049503
-0.179238
0.000234
-0.079280
-0.144639
-0.071020
-0.046923
-0.131557
-0.097234
-0.027289
0.001724
-0.103331
-0.103059
-0.046396
0.013268
0.008657
-0.097948
-0.054596
-0.001403
0.025363
0.039487
-0.051920
-0.080978
-0.066542
-0.088779
0.126551
0.134741
0.127849
0.154041
0.127954
0.181452
0.071296
0.087878
0.210037
0.147199
0.102722
0.255293
0.181909
0.284664
0.086563
0.079789
0.228339
0.188042
0.037560
0.069281
-0.041044
0.048687
0.024825
0.019540
0.035958
0.008314
-0.146429
-0.152436
-0.072769
-0.132267
-0.169335
-0.243422
-0.249867
-0.130927
-0.282827
-0.258995
-0.255311
-0.118893
-0.023639
0.255204
0.371345
0.707053
0.893232
0.933393
1.075920
0.883953
0.633101
0.440478
0.213324
0.002021
-0.161461
-0.349989
-0.380936
-0.349245
-0.290979
-0.297681
-0.252177
-0.211358
-0.148390
-0.084874
-0.073659
-0.124201
-0.067515
-0.008928
-0.134998
-0.102813
-0.143530
0.017887
0.028925
-0.038054
-0.038802
0.111305
0.040106
-0.048935
0.139396
0.106767
0.181554
0.186578
0.074413
0.154660
0.293262
0.221975
0.219649
0.272032
0.374698
0.286075
0.384086
0.252274
0.252668
0.310136
0.259259
0.354682
0.436888
0.295012
0.246807
0.249117
0.239115
0.298402
0.266603
0.206205
0.266913
0.134687
0.137166
0.181275
0.110193
0.121249
0.060903
-0.023555
0.030857
0.031349
-0.062538
0.016600
0.070551
-0.118930
-0.088422
-0.056307
-0.084271
0.004906
-0.044413
-0.042706
-0.061494
-0.181244
-0.059424
-0.123468
-0.166403
-0.169862
-0.005054
-0.134303
-0.085205
-0.105901
-0.130153
-0.129628
-0.041727
-0.169647
-0.022550
-0.121018
-0.010592
-0.080284
-0.128880
-0.129355
-0.107885
0.031809
-0.125098
0.012663
0.018273
-0.036234
0.001556
-0.045024
-0.040929
0.074243
-0.048690
-0.006160
0.062506
0.073247
0.173682
0.135796
0.221138
0.085430
0.295996
0.164670
0.269037
0.125158
0.290056
0.257676
0.119606
0.255773
0.228182
0.043659
0.152516
0.123839
0.016553
0.039423
0.118458
0.004504
-0.081701
0.017625
0.063517
-0.055014
-0.106057
0.010327
0.006150
-0.128985
-0.085232
-0.254714
-0.265491
-0.313795
-0.329840
-0.192161
-0.154442
-0.049960
0.299199
0.503011
0.824749
0.969670
1.166260
1.115566
1.020226
0.752221
0.388457
0.088265
-0.013971
-0.150806
-0.379199
-0.381885
-0.334134
-0.246393
-0.210872
-0.263538
-0.034339
-0.080860
-0.059375
-0.044932
-0.030658
-0.116048
-0.128897
-0.045002
-0.064092
0.029175
0.099452
-0.035948
0.081566
0.076569
0.066748
0.157109
0.129116
0.124264
0.054310
0.063692
0.272355
0.249448
0.303813
0.327212
0.329012
0.298365
0.279836
0.286057
0.341481
0.262863
0.358282
0.426452
0.371653
0.414173
0.412090
0.487211
0.341224
0.286187
0.440582
0.430281
0.311079
0.248392
0.232673
0.210211
0.274526
0.302951
0.118314
0.204307
0.112877
0.084552
0.164824
0.035001
0.000175
0.051072
-0.017797
0.002264
-0.049533
0.078333
-0.067670
-0.011817
-0.096075
-0.047562
0.024660
-0.044195
0.037987
-0.005844
-0.026753
-0.031821
-0.049657
0.028494
-0.004732
-0.095498
0.067975
-0.033089
-0.028094
0.023766
0.006791
0.017974
-0.081458
-0.047947
-0.053737
0.047355
0.076486
-0.059042
0.083540
0.013761
-0.063180
-0.000372
-0.059005
0.067246
0.092036
0.051528
0.109548
0.135856
0.055822
0.063651
0.154736
0.281550
0.280113
0.132350
0.332449
0.336103
0.210749
0.370887
0.226809
0.297813
0.268042
0.250772
0.184756
0.128866
0.128491
0.205342
0.190803
0.198767
0.059631
-0.009871
0.079107
-0.008723
0.121631
-0.019505
-0.039810
0.006733
-0.059423
-0.126019
0.040525
-0.008166
-0.033018
-0.089043
-0.199982
-0.247499
-0.065596
0.033129
0.151734
0.313543
0.602976
0.927924
1.073782
1.191977
1.122208
0.838308
0.775717
0.339668
0.142098
-0.040910
-0.158881
-0.197922
-0.218930
-0.286677
-0.259447
-0.070032
-0.055162
-0.023717
-0.022338
0.022279
-0.012579
0.093709
0.024079
0.027935
0.004468
0.064471
0.079221
0.004576
0.132968
0.043046
0.074566
0.175323
0.091900
0.157516
0.135089
0.142631
0.299682
0.225109
0.278214
0.218087
0.243311
0.311914
0.331839
0.355679
0.436277
0.404863
0.500287
0.519190
0.461965
0.424349
0.466799
0.407099
0.426055
0.514824
0.507528
0.336228
0.494929
0.291433
0.284811
0.398812
0.300591
0.245126
0.347303
0.328382
0.288210
0.180641
0.282596
0.133057
0.160925
0.073710
0.129523
0.059519
0.122667
-0.017039
-0.024846
-0.016402
-0.023838
-0.038854
-0.021617
-0.038694
-0.067521
-0.059707
-0.068730
0.050112
-0.017680
0.022740
-0.035377
0.092375
-0.065293
0.034202
0.115848
0.082716
0.089815
0.007862
0.128399
0.007945
0.113118
0.087200
0.027021
0.048346
0.016317
-0.023348
0.116983
0.062189
0.005160
0.085013
0.182455
0.104397
0.165411
0.145311
0.097348
0.166393
0.179256
0.143584
0.197654
0.359096
0.348363
0.229148
0.254890
0.418364
0.407074
0.290974
0.309055
0.346303
0.271448
0.273392
0.334857
0.221878
0.262832
0.223840
0.086714
0.193496
0.020166
0.146528
0.086758
0.043813
0.116093
0.094360
0.026433
0.081510
0.052067
0.016825
-0.083421
-0.181079
-0.107264
-0.016375
-0.066134
0.076693
0.260423
0.578408
0.825529
0.965277
1.229913
1.097099
0.988837
0.962967
0.629062
0.387872
0.030200
-0.110655
-0.281104
-0.214084
-0.134907
-0.190557
-0.154221
-0.064610
-0.102524
0.066224
0.013932
-0.019763
0.037103
0.022262
0.034843
-0.015057
0.038973
0.093232
0.039836
0.098900
0.127629
0.157164
0.178080
0.151599
0.146721
0.153285
0.256225
0.231281
0.318237
0.368023
0.394199
0.390645
0.332081
0.400364
0.426083
0.430009
0.378233
0.431908
0.547783
0.432709
0.426330
0.496961
0.467813
0.556657
0.523045
0.508777
0.421430
0.347489
0.392144
0.458185
0.332159
0.456646
0.245800
0.381696
0.234949
0.222717
0.238665
0.242712
0.223233
0.277251
0.159615
0.170629
0.152952
0.137696
0.075100
0.126733
0.037661
0.042711
0.109752
0.052449
0.073539
0.031278
-0.009210
0.052362
0.045862
-0.019993
0.046032
0.048793
-0.038448
-0.028299
0.017451
0.153189
0.078166
0.106077
0.010658
0.062856
-0.038629
0.122583
0.007440
0.091482
0.089255
-0.001418
0.122209
0.042470
0.030093
0.133373
0.066903
0.116776
0.114638
0.204588
0.172011
0.267336
0.133279
0.308303
0.205953
0.361243
0.205532
0.320142
0.226487
0.262280
0.411290
0.368809
0.402846
0.367322
0.241815
0.330560
0.270408
0.340723
0.309916
0.251221
0.215688
0.116341
0.185180
0.172971
0.162303
0.074304
-0.004672
0.111324
0.038170
0.111107
-0.027588
0.087997
0.042069
-0.113288
-0.055281
-0.070799
-0.081013
-0.102849
0.002465
0.349462
0.530242
0.680242
0.941330
1.214953
1.091485
1.143473
0.956926
0.590333
0.404860
0.169747
-0.137876
-0.149899
-0.207528
-0.140257
-0.224295
-0.100654
-0.175006
-0.126878
0.000195
-0.006448
0.006779
0.136277
0.091682
0.025127
0.011981
0.122403
0.157315
0.059911
0.016792
0.125448
0.112319
0.089284
0.156734
0.178878
0.218662
0.175308
0.246993
0.264598
0.278345
0.321004
0.304875
0.432199
0.403918
0.346346
0.498736
0.325470
0.380688
0.513679
0.512687
0.423617
0.539240
0.551891
0.513817
0.446048
0.457226
0.512023
0.518162
0.425051
0.404410
0.443125
0.402809
0.324128
0.308031
0.301976
0.216310
0.192138
0.132908
0.226293
0.133312
0.160533
0.021646
0.030445
0.179316
0.115762
0.141380
0.091922
0.035252
0.053822
0.015139
-0.005484
-0.034774
0.087811
0.092737
0.003601
-0.004222
0.022112
0.069911
-0.076387
0.005063
0.066864
0.052865
0.047352
0.067281
0.003225
-0.042360
0.100127
0.038031
0.061071
0.083067
0.036644
-0.000647
0.047563
0.063909
-0.062281
0.089245
-0.038759
0.009666
0.119667
0.076219
0.006531
0.069253
0.123598
0.212505
0.243178
0.159825
0.139758
0.342283
0.274310
0.212957
0.261815
0.248548
0.308119
0.314310
0.199483
0.167344
0.239031
0.152644
0.284258
0.157716
0.132268
0.059059
0.181708
0.162224
-0.012579
0.019538
0.077794
-0.039093
-0.015571
-0.024772
-0.046420
0.045619
-0.132891
-0.165027
-0.047847
-0.176901
-0.128281
-0.227832
-0.122844
0.086707
0.233636
0.600849
0.788663
0.914691
1.071475
1.048832
1.044110
0.834018
0.584505
0.178453
-0.000158
-0.097764
-0.322596
-0.276616
-0.343836
-0.226438
-0.247593
-0.064273
-0.157349
-0.031255
-0.120025
-0.044151
0.005583
-0.099407
-0.007192
-0.052628
-0.019524
0.032292
0.123528
-0.056490
0.001582
0.022792
0.018801
0.120816
0.154922
0.137769
0.065465
0.101940
0.229417
0.181300
0.304947
0.348006
0.330152
0.205902
0.368861
0.305581
0.414977
0.302523
0.408569
0.319416
0.461568
0.337104
0.338133
0.330386
0.381728
0.462587
0.375433
0.375417
0.263196
0.316229
0.348341
0.382282
0.234874
0.162862
0.167930
0.290950
0.235555
0.194667
0.174835
0.195217
0.156003
0.087894
0.122376
0.086732
0.030342
0.066573
-0.086148
-0.064119
-0.037484
-0.069218
-0.098769
0.021793
-0.094482
0.009783
-0.118969
0.014666
-0.096275
-0.149202
-0.081190
-0.078312
0.015995
0.029243
-0.103850
-0.039442
-0.089485
-0.059775
-0.005710
-0.019645
-0.140310
0.028300
-0.006427
-0.059929
-0.111361
-0.058979
-0.137257
-0.022015
-0.010849
-0.101304
-0.025614
0.011477
0.099773
0.093400
0.112331
0.153766
0.053597
0.096059
0.243465
0.100239
0.111008
0.287847
0.141346
0.275198
0.274684
0.152740
0.318715
0.152209
0.145508
0.174641
0.115356
0.177821
0.126097
0.129947
-0.015145
0.005606
0.108460
0.083299
0.008600
-0.025503
0.028199
0.014600
-0.133033
-0.056112
-0.040332
-0.078126
-0.261978
-0.262881
-0.254829
-0.254643
-0.138977
-0.058598
0.003840
0.215100
0.486132
0.632727
0.825412
1.043370
1.161935
0.924467
0.882173
0.510872
0.207488
0.056592
-0.172110
-0.330102
-0.391431
-0.432799
-0.276249
-0.378728
-0.263247
-0.262408
-0.062042
-0.209922
-0.155067
-0.118940
-0.002703
-0.077008
-0.124749
-0.095222
0.029678
-0.139039
-0.094739
0.036203
-0.068762
0.012373
-0.014259
0.118956
0.127501
0.182131
0.077766
0.125726
0.195647
0.148134
0.276736
0.197933
0.142258
0.185865
0.245983
0.203360
0.376359
0.399709
0.245154
0.282907
0.266133
0.366623
0.339784
0.267532
0.399331
0.382499
0.253522
0.333817
0.354103
0.340226
0.229856
0.296673
0.124346
0.107109
0.226400
0.150908
0.196965
0.032203
0.138910
-0.036573
0.050447
-0.076807
-0.060079
-0.079440
-0.086724
-0.032505
-0.025780
0.008611
-0.054462
-0.067782
-0.122213
-0.136672
-0.120127
-0.043272
-0.132096
-0.031727
-0.046981
-0.044427
-0.035501
-0.140328
-0.195002
-0.153785
-0.188105
-0.071800
-0.016510
-0.073638
-0.120975
-0.155163
-0.132340
-0.061370
-0.101969
-0.033516
-0.128809
-0.172365
-0.020178
-0.095313
-0.121917
-0.043108
-0.038009
0.051745
-0.112846
0.035488
0.091065
-0.029586
0.132861
0.140294
0.131908
0.152142
0.148346
0.088751
0.196867
0.159375
0.178835
0.212795
0.265629
0.105196
0.266415
0.224273
0.121941
0.178845
0.048835
0.069855
0.095470
-0.000433
-0.043794
-0.063535
-0.016716
-0.059774
-0.072069
0.023160
-0.025664
-0.155027
-0.024752
-0.225228
-0.261357
-0.260741
-0.280545
-0.293558
-0.202776
-0.155940
-0.255912
-0.054477
0.244433
0.336915
0.556752
0.778792
0.974265
1.101567
0.903304
0.820150
0.496729
0.219687
0.093879
-0.274505
-0.370372
-0.405301
-0.359214
-0.324174
-0.416775
-0.209536
-0.248487
-0.187568
-0.223232
-0.151092
-0.182386
-0.138571
-0.002518
-0.030280
-0.012139
-0.144641
-0.117005
-0.028071
-0.132196
-0.066460
0.026151
-0.049805
0.064513
-0.032664
0.054883
0.011473
0.111431
0.080920
0.084059
0.159061
0.208956
0.179415
0.287738
0.228975
0.188876
0.278947
0.277188
0.297614
0.247512
0.394432
0.265927
0.310817
0.334976
0.387998
0.287312
0.391918
0.372240
0.273728
0.235076
0.312025
0.231403
0.317650
0.236976
0.103897
0.216068
0.176102
0.035142
0.032353
0.156015
-0.010577
-0.063159
0.018700
-0.106101
-0.007635
-0.048040
0.018965
-0.043358
-0.161759
-0.044005
-0.163708
-0.007736
-0.191552
-0.058864
-0.045866
-0.057254
-0.116986
-0.016048
-0.100063
-0.070411
-0.166726
-0.025030
-0.101920
-0.006126
-0.035530
-0.145703
-0.159505
-0.164109
-0.140561
-0.139738
-0.138089
-0.091056
-0.116004
-0.011127
-0.053319
0.008452
-0.012523
-0.011640
0.027969
-0.105114
-0.093211
-0.012382
-0.028852
0.066493
-0.000573
0.017001
0.120085
0.143660
0.242788
0.262969
0.228546
0.265582
0.185270
0.149459
0.280304
0.251904
0.314715
0.260636
0.285136
0.102613
0.197163
0.089581
0.130340
0.080754
0.078634
0.126732
0.007280
-0.075944
0.044206
-0.048437
-0.037068
-0.087281
-0.034997
-0.001477
-0.062048
-0.115828
-0.064047
-0.215789
-0.314521
-0.329164
-0.172441
-0.089557
-0.034971
0.029629
0.327190
0.453622
0.866943
1.046612
1.036294
