1.101057
1.120622
0.793339
0.589921
0.481943
0.076583
-0.125300
-0.184580
-0.401296
-0.443468
-0.395026
-0.343850
-0.364745
-0.279513
-0.124037
-0.192196
-0.125025
-0.175519
-0.129657
-0.018323
0.010861
-0.069429
0.005678
-0.016730
-0.133034
-0.153744
0.010635
-0.036960
-0.084811
0.019389
0.019482
0.074653
-0.016694
-0.006320
0.001297
-0.038678
0.031704
0.165322
0.042712
0.142328
0.063822
0.240960
0.284505
0.172361
0.178765
0.338721
0.339115
0.344828
0.307566
0.338484
0.353785
0.333408
0.426801
0.299937
0.297045
0.383678
0.391015
0.312167
0.305838
0.282171
0.348473
0.349590
0.240257
0.277184
0.277404
0.194098
0.312876
0.322931
0.216866
0.274131
0.288874
0.156497
0.241489
0.115716
0.050356
0.030289
0.122793
0.143221
0.110256
0.004403
0.099377
-0.009859
0.026097
-0.027749
-0.062179
-0.020931
-0.020375
-0.114698
-0.051299
0.023488
0.004983
0.019049
-0.051827
-0.099341
-0.093371
-0.181620
-0.116142
-0.028708
-0.052450
-0.090899
0.008645
0.017266
-0.079059
-0.088203
-0.016055
-0.150535
-0.008211
-0.023475
-0.054418
-0.110236
-0.052863
-0.053924
-0.126610
-0.155490
-0.120019
0.032854
-0.002698
-0.154394
-0.053496
-0.107960
-0.057905
-0.041999
-0.147811
0.019970
-0.056362
-0.111893
0.048382
0.036059
-0.014716
-0.061341
0.056805
0.058367
-0.102003
-0.084377
-0.042282
-0.009493
0.109810
-0.040992
0.026310
0.138683
0.032712
0.208303
0.089958
0.166993
0.152287
0.222176
0.321678
0.168967
0.321138
0.249586
0.270612
0.149775
0.239150
0.277795
0.225247
0.298845
0.183456
0.073285
0.064957
0.116538
0.035045
0.073767
0.087920
-0.029056
-0.050435
-0.076254
-0.073935
-0.018205
-0.020818
0.054939
-0.074853
0.038428
-0.064508
-0.148865
-0.022450
-0.164062
-0.223562
-0.143732
-0.128780
-0.165298
-0.231123
-0.140080
-0.127064
0.077041
0.191947
0.501692
0.673336
0.856520
1.084986
1.068368
1.068732
0.897293
0.753382
0.606176
0.310907
0.046026
-0.068529
-0.191032
-0.310735
-0.362877
-0.190272
-0.237611
-0.097523
-0.142321
-0.006478
-0.001887
-0.038138
-0.119044
-0.064205
-0.017957
0.077505
0.087547
0.034795
0.009614
0.087004
0.001815
0.070568
0.015693
-0.019451
0.059829
-0.013674
0.100470
0.197557
0.056899
0.044479
0.142304
0.150317
0.283964
0.243190
0.275232
0.171333
0.268762
0.375203
0.344688
0.314669
0.312883
0.465756
0.435495
0.365628
0.390493
0.441048
0.484243
0.427874
0.474389
0.549431
0.527188
0.431409
0.405098
0.511026
0.433942
0.418810
0.340825
0.317070
0.341156
0.459354
0.259105
0.276070
0.275544
0.310732
0.180251
0.144903
0.181572
0.289826
0.260439
0.206245
0.173808
0.149016
0.052688
0.136838
0.019271
0.148175
-0.030180
0.012720
0.109817
-0.044535
0.074165
0.012602
-0.026664
0.028831
-0.052901
0.040680
-0.041798
-0.064663
-0.039818
0.081749
0.028852
0.046338
0.091620
-0.016244
-0.040194
0.071223
-0.019391
0.048853
0.030914
0.076487
-0.017608
0.103796
-0.031169
-0.085256
-0.023366
0.074290
0.073441
-0.024601
0.094002
0.037346
-0.073287
0.048977
-0.013935
-0.054081
-0.073720
0.080429
0.096604
-0.076720
-0.027052
-0.063730
-0.000877
0.007428
0.077492
0.031518
0.125964
-0.000825
-0.010368
0.027115
0.115544
0.127714
0.132278
0.173846
0.214554
0.144259
0.162737
0.228496
0.289068
0.346122
0.245430
0.239953
0.229445
0.278948
0.226465
0.284632
0.236729
0.324118
0.372761
0.360705
0.271200
0.296568
0.209167
0.110336
0.125124
0.110328
0.157304
0.042865
0.094596
0.111054
0.150546
0.105859
0.123555
-0.031745
0.060029
-0.039965
0.074060
-0.015892
0.043722
0.060794
-0.140869
-0.087387
-0.137624
-0.073651
-0.085561
-0.090682
-0.089069
-0.019405
0.104791
0.313262
0.621973
0.845664
1.115703
1.154408
1.277149
1.063668
0.963786
0.645583
0.547765
0.182113
0.062480
-0.034224
-0.100436
-0.202731
-0.292256
-0.284452
-0.179764
-0.004232
-0.097945
-0.071153
-0.062867
0.107774
0.024741
0.058014
-0.046090
0.051130
0.127247
-0.022734
0.035525
0.055056
0.130516
0.186751
0.196424
0.137738
0.193843
0.093421
0.124356
0.109214
0.275234
0.096229
0.250703
0.205941
0.291684
0.193852
0.203677
0.321927
0.407521
0.370697
0.429378
0.293948
0.428904
0.394354
0.365692
0.377158
0.370693
0.453791
0.575747
0.564441
0.509272
0.469081
0.391216
0.537253
0.514661
0.374341
0.501551
0.503321
0.338448
0.405645
0.488532
0.348188
0.390207
0.271860
0.307493
0.197311
0.171955
0.241682
0.182232
0.116326
0.224320
0.129310
0.205748
0.069394
0.023344
0.160141
0.074980
0.077212
0.020271
0.036380
0.121876
0.122796
-0.011025
0.074587
-0.015685
0.014869
-0.057342
-0.019529
0.111179
0.000451
0.101744
0.043228
0.058860
0.029576
-0.004645
0.010116
0.101167
0.055837
-0.056160
-0.005303
0.090574
-0.023662
0.009276
-0.014375
-0.052557
0.050635
0.062062
0.109253
0.079457
-0.012112
0.045591
-0.047152
-0.073787
0.009723
0.105042
-0.041901
-0.010038
0.121257
0.124267
0.103749
0.113826
0.006680
0.118163
0.002349
0.112937
0.074601
-0.015472
0.104903
0.147724
0.201931
0.040516
0.087796
0.212709
0.217150
0.216557
0.152992
0.336838
0.359698
0.238228
0.201953
0.394005
0.294432
0.254974
0.273329
0.392974
0.391919
0.202983
0.362900
0.274505
0.292632
0.299292
0.105829
0.259033
0.096792
0.072252
0.032525
0.101884
0.029985
0.133425
-0.025154
0.104247
0.049633
-0.070027
0.028864
-0.044459
0.017777
-0.024864
-0.003543
-0.122661
-0.017564
-0.097403
-0.066773
-0.165696
-0.050400
-0.047451
0.143758
0.167589
0.577048
0.624062
0.858995
1.085851
1.208435
1.089636
0.938378
0.700095
0.607572
0.238959
0.041242
-0.179621
-0.257637
-0.250493
-0.318441
-0.223542
-0.135068
-0.168786
-0.040849
-0.014855
0.070602
-0.106320
0.033356
0.015596
0.105615
0.057546
0.016325
-0.013165
0.016898
0.017925
-0.033885
0.048674
0.116801
0.065676
0.045487
0.070738
0.147255
0.199240
0.185598
0.077546
0.090678
0.103928
0.157749
0.132263
0.174818
0.355384
0.216896
0.293225
0.365034
0.337361
0.369005
0.424411
0.482156
0.380317
0.444077
0.333625
0.509117
0.513058
0.536230
0.414465
0.403719
0.471575
0.445355
0.482503
0.489034
0.483069
0.450732
0.258880
0.251041
0.285773
0.214864
0.251504
0.297549
0.302878
0.171803
0.266142
0.194182
0.127922
0.191152
0.204948
0.065763
0.071077
0.082529
0.027097
0.057895
0.043010
0.072429
0.020378
-0.051346
-0.020142
-0.032784
-0.052800
0.053040
-0.063843
-0.028863
-0.097309
-0.039858
-0.107075
-0.035152
0.003730
-0.079243
-0.019735
0.030912
0.042607
0.018273
-0.093989
-0.011099
0.004788
-0.137016
-0.016878
0.050912
-0.120031
-0.092274
0.047004
-0.097094
-0.076481
-0.001225
-0.093940
-0.045263
-0.033231
-0.051126
-0.037924
-0.098045
-0.113946
0.054129
-0.107080
-0.064372
0.031858
-0.098114
-0.013895
0.055637
0.075967
-0.013911
-0.044511
-0.050160
0.064460
-0.036600
-0.015679
0.111471
0.069656
0.058670
0.087712
0.155616
0.101586
0.091410
0.104663
0.218866
0.313611
0.327214
0.210918
0.250997
0.208696
0.231505
0.136901
0.159323
0.162053
0.223991
0.075858
0.104288
0.190418
0.034022
0.110925
0.007361
0.023517
0.045235
0.036718
-0.024232
-0.117024
-0.048145
0.030145
0.037751
-0.038383
0.002115
-0.111562
-0.035649
-0.057079
-0.142553
-0.219311
-0.269732
-0.120404
-0.161075
-0.064040
0.083947
0.171499
0.343054
0.613384
0.743981
0.946232
1.082667
1.025390
0.966298
0.773704
0.476058
0.234844
0.027180
-0.147169
-0.278235
-0.366710
-0.287775
-0.269908
-0.330146
-0.292897
-0.235733
-0.201937
-0.103780
-0.089312
-0.120659
-0.006783
-0.152170
-0.083485
0.020695
0.020338
-0.104345
-0.096628
0.049811
0.000838
-0.064713
-0.087797
0.040824
0.025907
-0.051179
-0.029746
0.096867
-0.025679
0.039189
0.196286
0.027513
0.200842
0.217933
0.100058
0.242985
0.128676
0.150681
0.314352
0.329095
0.387952
0.394800
0.366238
0.423515
0.268327
0.384400
0.332847
0.368195
0.448748
0.438449
0.300472
0.266468
0.283083
0.364969
0.302072
0.297415
0.327594
0.228719
0.313085
0.289320
0.165011
0.245762
0.066588
0.207284
0.116410
0.018315
0.093455
-0.011237
0.123940
0.068079
-0.064415
-0.067126
-0.024202
-0.076970
-0.014401
-0.136971
-0.012638
-0.115938
-0.149874
-0.137354
-0.000282
-0.158560
-0.022490
-0.174635
-0.115201
-0.023804
-0.185238
-0.055851
-0.080072
-0.066307
-0.176791
-0.137593
-0.069121
-0.127742
-0.160868
-0.033171
-0.070281
-0.072837
-0.202274
-0.078745
-0.196449
-0.059734
-0.010023
-0.066003
-0.057137
-0.089824
-0.015458
-0.185754
-0.021177
-0.105628
-0.136359
-0.030612
-0.196189
-0.157460
-0.102179
-0.017718
-0.050696
-0.018728
-0.107833
-0.165962
-0.173701
-0.070255
-0.065076
0.001691
0.018620
0.014301
0.037119
-0.034225
0.034645
0.097302
-0.011335
0.095930
0.186842
0.104461
0.087989
0.238977
0.101642
0.275207
0.228398
0.193449
0.143190
0.107568
0.100411
0.211185
0.115279
0.103951
0.092535
0.157162
0.093282
-0.017285
-0.053927
-0.042383
-0.091316
-0.090218
-0.103451
-0.093402
-0.037627
-0.019613
-0.077685
-0.050569
-0.133276
-0.145050
-0.139038
-0.172254
-0.175361
-0.197453
-0.274526
-0.167048
-0.203365
-0.171166
-0.157010
-0.195214
0.006454
0.170322
0.432446
0.682738
0.794710
1.040188
1.084149
1.041506
0.809940
0.576289
0.362995
0.087654
-0.071741
-0.119278
-0.376135
-0.421642
-0.344530
-0.439278
-0.256882
-0.221035
-0.161454
-0.102826
-0.075031
-0.227894
-0.106180
-0.053179
-0.187026
-0.149374
-0.101919
-0.094944
-0.004554
-0.122143
-0.143924
-0.113665
-0.100692
-0.126350
0.002609
-0.014549
0.030216
0.005753
-0.020987
0.043441
0.140661
0.124354
0.092021
0.190660
0.215521
0.143483
0.138096
0.160436
0.164313
0.179377
0.223013
0.225366
0.382282
0.298609
0.351705
0.255881
0.322953
0.273360
0.326107
0.367290
0.416554
0.426571
0.268362
0.343972
0.299685
0.270524
0.345869
0.375316
0.234198
0.245427
0.283702
0.241836
0.135905
0.187581
0.098423
0.046413
0.151702
0.108044
0.063849
0.081712
0.013498
-0.056076
0.084321
-0.116132
-0.018686
0.054179
-0.121842
-0.063743
-0.091260
0.007176
-0.088525
-0.051790
-0.124269
-0.130997
-0.017020
-0.062320
-0.043733
-0.113462
-0.098519
-0.066438
-0.078506
-0.161274
-0.150039
-0.112983
-0.016607
-0.077979
-0.070266
-0.017021
-0.005032
-0.120198
-0.049729
-0.112573
-0.066319
-0.181348
-0.062251
-0.141484
-0.150549
-0.144605
-0.001609
-0.037381
-0.052363
0.003862
-0.053326
-0.149548
-0.086378
-0.093259
-0.091923
0.006073
-0.062154
-0.145469
0.019723
-0.047677
-0.007736
-0.038764
-0.008363
0.028730
-0.081296
-0.061564
0.022370
-0.045802
0.071308
0.104724
0.007495
0.084345
0.063708
0.097507
0.196960
0.229276
0.162101
0.222063
0.144901
0.164209
0.125027
0.143798
0.261606
0.104110
0.096338
0.147571
0.044447
0.056447
0.197676
0.089528
0.143887
0.136445
-0.051424
-0.090879
-0.103436
0.075882
-0.057387
-0.049609
-0.059680
-0.111547
-0.065449
-0.029917
-0.090415
-0.111972
-0.170851
-0.073109
-0.089710
-0.244920
-0.134649
-0.152413
-0.136909
-0.104721
0.048726
0.055679
0.369921
0.678881
0.755308
0.903796
1.029926
1.041704
0.981571
0.739518
0.584661
0.283648
0.141167
-0.160587
-0.176307
-0.252865
-0.396553
-0.290957
-0.267752
-0.193151
-0.147476
-0.052660
-0.062183
-0.015003
-0.104450
-0.001732
0.037695
-0.103357
-0.061128
0.058948
-0.012279
-0.124628
0.070340
-0.102507
0.088936
-0.011936
0.085668
0.104584
0.036108
-0.028359
0.066894
0.110191
0.122897
0.135736
0.173115
0.136107
0.085779
0.115647
0.316562
0.191187
0.167483
0.326179
0.268474
0.368753
0.390444
0.255517
0.425329
0.460466
0.479987
0.485250
0.481589
0.475682
0.492213
0.422792
0.482063
0.342246
0.449221
0.365693
0.395637
0.454206
0.267777
0.295543
0.206469
0.286643
0.286788
0.171915
0.143053
0.292166
0.260189
0.220101
0.057872
0.026382
0.170351
0.015907
0.155639
0.142460
-0.036439
0.105190
-0.000382
-0.064000
0.058429
-0.082373
-0.018356
0.029641
0.063989
0.056668
-0.071118
0.046200
-0.015740
-0.014130
-0.021317
-0.133040
-0.005970
0.052943
0.045474
-0.055109
-0.072980
-0.111567
0.014260
-0.070904
-0.127557
0.013453
0.005046
-0.027629
0.032048
0.050490
0.070861
-0.045776
-0.078118
-0.097409
-0.037263
0.045144
0.014809
-0.060130
-0.045349
-0.082991
-0.045569
-0.064800
-0.037706
-0.073653
-0.021354
-0.091800
-0.052804
-0.006467
-0.009390
-0.085724
-0.050792
0.058461
0.053152
-0.016107
0.030561
0.100811
0.094115
0.178221
0.050446
0.243564
0.103780
0.241330
0.313195
0.227461
0.243048
0.286480
0.367611
0.240133
0.375003
0.240421
0.343159
0.241951
0.224530
0.186070
0.336997
0.134418
0.251460
0.142224
0.198336
0.169825
0.045301
0.090587
0.042828
-0.002272
0.067292
0.013211
-0.049891
-0.053503
0.003650
0.061142
0.076063
-0.020931
0.023741
-0.048337
-0.117201
-0.047987
-0.141907
-0.067213
-0.133898
-0.173279
-0.130116
-0.075388
0.145848
0.354558
0.559469
0.856050
1.022100
1.057758
1.191483
1.154525
1.037089
0.751074
0.578479
0.301949
-0.017826
-0.015873
-0.310853
-0.336102
-0.253486
-0.315636
-0.176819
-0.151520
-0.055106
-0.115480
-0.088509
0.069891
-0.073212
-0.049296
0.026476
0.051570
-0.020087
0.032786
-0.022315
0.053071
0.019972
0.052918
0.051532
0.160238
0.173056
0.165559
0.028828
0.187333
0.094684
0.158519
0.090531
0.178002
0.166656
0.248712
0.216979
0.287635
0.356346
0.376837
0.335534
0.373773
0.328336
0.298996
0.302900
0.443743
0.426583
0.351899
0.462985
0.429540
0.370804
0.499058
0.480975
0.452460
0.526369
0.390677
0.500596
0.436631
0.410176
0.447477
0.493615
0.473451
0.457359
0.341699
0.349994
0.358110
0.220258
0.287886
0.236466
0.160555
0.180089
0.197818
0.187692
0.168394
0.205504
0.127926
0.003959
0.062840
0.062751
0.014222
0.002458
0.056490
0.039550
-0.002155
0.030056
-0.066215
-0.031142
0.006417
0.017153
-0.013192
0.003030
-0.020504
-0.069382
0.078571
-0.026790
0.019365
0.021190
0.030068
0.025678
0.047069
0.050263
-0.010907
-0.055678
-0.087419
-0.010451
0.082130
0.084466
0.071267
0.019838
0.049032
0.047420
0.074666
-0.061111
-0.052656
0.054432
-0.014836
0.041682
0.082670
-0.030593
0.092636
0.111227
0.014288
-0.008854
-0.039144
0.095524
0.099920
0.082517
-0.002746
0.028227
-0.017836
0.017609
0.076808
0.192664
0.163960
0.115715
0.234480
0.138361
0.291993
0.189077
0.274708
0.329133
0.189738
0.371965
0.403272
0.341227
0.289031
0.357531
0.389375
0.294890
0.219098
0.261807
0.163243
0.312450
0.210842
0.138353
0.147502
0.238219
0.158641
0.163267
0.016093
0.031528
0.128247
0.106681
0.030240
0.075601
0.068043
-0.040270
-0.083208
-0.091941
-0.094249
0.030856
-0.146513
-0.136084
-0.085245
-0.178951
-0.150844
-0.170944
-0.037762
0.055141
0.271048
0.350429
0.752098
0.861120
1.119689
1.150187
1.227628
1.063668
0.891618
0.549514
0.420366
0.116564
0.019258
-0.153899
-0.302971
-0.210224
-0.354074
-0.287662
-0.205634
-0.128075
-0.174044
-0.136530
-0.128636
-0.028534
-0.041964
-0.040463
0.041606
0.068274
0.101629
0.020114
0.104516
-0.047533
0.077560
0.098425
0.036064
0.100423
-0.016908
0.110447
0.070299
0.039891
0.165399
0.156221
0.099872
0.161226
0.198852
0.206969
0.265882
0.189055
0.364183
0.372099
0.270668
0.338383
0.353009
0.280677
0.369619
0.379323
0.350320
0.498259
0.468193
0.448466
0.493676
0.368100
0.537320
0.356063
0.389598
0.436923
0.355773
0.365938
0.483314
0.393580
0.440499
0.354874
0.400456
0.257641
0.211916
0.296612
0.166995
0.180989
0.122256
0.138997
0.244015
0.144869
0.076522
0.074485
0.087775
0.132478
0.011246
0.070556
0.134099
-0.073225
0.006064
0.009757
0.073285
-0.078759
-0.077947
0.065814
0.032225
-0.096485
0.055707
-0.120779
-0.058909
0.003008
-0.129694
0.042639
0.049054
-0.045983
-0.087551
-0.011003
0.052451
-0.005401
-0.121503
0.066094
-0.073028
-0.083944
-0.054603
-0.079373
-0.086480
-0.057617
-0.096211
0.022730
-0.013970
-0.067521
0.050583
0.049590
-0.042761
-0.115213
0.000131
0.039403
0.053262
-0.002445
-0.040139
-0.122216
0.072888
-0.012069
-0.046354
0.008534
0.074124
-0.006500
0.050061
0.104234
-0.044691
-0.008785
0.059355
0.138119
0.084780
0.049663
0.212285
0.061684
0.147827
0.268155
0.260025
0.259689
0.240536
0.170715
0.209865
0.252647
0.260845
0.272382
0.237801
0.213588
0.217882
0.128820
0.126542
0.096753
0.176620
0.125067
0.015164
0.044523
0.133116
-0.037627
0.097909
0.053381
-0.067822
0.065267
-0.104285
0.013349
-0.000850
-0.005721
0.043283
-0.157461
-0.066577
-0.121616
-0.190700
-0.255131
-0.119020
-0.127784
-0.127217
-0.097199
-0.073352
0.118525
0.328070
0.420915
0.748592
0.943135
1.167563
1.042068
1.082608
0.832233
0.629063
0.345520
0.252668
-0.057341
-0.111646
-0.253935
-0.425254
-0.260004
-0.344138
-0.293396
-0.140632
-0.184929
-0.041171
-0.164907
-0.026646
-0.002446
-0.006961
-0.078152
0.038694
-0.038610
-0.032715
-0.077735
0.018358
-0.101442
-0.084812
0.088526
-0.087240
0.060985
0.006841
-0.039343
-0.044530
0.152779
0.020472
0.068392
0.037661
0.142221
0.131159
0.084405
0.084438
0.182132
0.299337
0.201427
0.299673
0.328512
0.379393
0.359494
0.359354
0.379718
0.402502
0.445761
0.460592
0.367616
0.352830
0.469532
0.472381
0.291067
0.339058
0.264548
0.329959
0.358691
0.251992
0.287449
0.203281
0.292040
0.215087
0.144562
0.256205
0.233546
0.108778
0.103930
0.052299
0.007889
0.090409
0.095056
0.140279
0.105591
-0.060241
-0.086916
-0.047562
0.039743
-0.000895
-0.118982
-0.121037
0.018763
-0.123647
-0.174513
-0.058541
-0.115672
-0.055878
-0.185800
-0.015428
-0.151852
-0.068863
-0.152856
-0.014042
-0.137060
-0.014395
-0.149107
-0.032678
-0.070740
-0.073689
-0.140697
-0.069417
-0.003951
-0.059269
-0.128484
-0.050939
-0.139705
-0.104426
-0.046484
-0.089734
-0.035937
-0.167061
-0.156717
-0.043665
-0.136710
-0.096258
-0.069184
-0.109711
-0.154996
-0.178956
-0.169461
-0.101652
-0.109222
-0.133607
-0.051855
-0.046186
-0.045632
-0.157268
-0.105503
-0.003114
0.012139
0.056134
0.001011
-0.052050
0.081975
0.070158
0.154034
0.084993
0.077713
0.189355
0.109207
0.256765
0.151233
0.105163
0.098426
0.203919
0.117386
0.276982
0.230946
0.166547
0.114733
0.209823
0.036069
0.115382
0.102284
0.023576
0.014574
0.120157
0.026130
0.048770
-0.009952
-0.132950
-0.143677
-0.078762
-0.036819
-0.047259
-0.117454
-0.098849
-0.172116
-0.198284
-0.125620
-0.192101
-0.225899
-0.311678
-0.162111
-0.288300
-0.209774
-0.170723
-0.061553
0.058979
0.179960
0.341965
0.697988
0.905243
0.898495
0.977931
1.072534
0.856239
0.601137
0.471455
0.116930
-0.087006
-0.206323
-0.394833
-0.368309
-0.456808
-0.320696
-0.291781
-0.262397
-0.209280
-0.186585
-0.173069
-0.217109
-0.036183
-0.007853
-0.011669
-0.037578
-0.126885
-0.113372
-0.079955
-0.054325
-0.040948
-0.106412
-0.030385
-0.062686
-0.071745
0.082351
0.027200
-0.010760
-0.051323
0.002685
-0.034082
0.051333
0.138520
0.168339
0.052707
0.236569
0.210117
0.115620
0.264274
0.281215
0.314051
0.288296
0.298646
0.365483
0.407686
0.236378
0.269492
0.411410
0.253161
0.385897
0.425824
0.327484
0.393858
0.320466
0.420485
0.317756
0.315229
0.202550
0.223248
0.322545
0.163878
0.209809
0.236255
0.171871
0.062541
0.175272
0.061615
0.039172
-0.008261
0.064691
0.057166
-0.064029
-0.058648
-0.027626
-0.090502
0.039684
0.033716
-0.072696
-0.142044
-0.075130
-0.024683
-0.070382
-0.059692
-0.107139
-0.062104
-0.150127
-0.205257
-0.113603
-0.176062
-0.023429
-0.063989
-0.093890
-0.138585
-0.032698
-0.106911
-0.063426
-0.131052
-0.143680
-0.061808
-0.049459
-0.130951
-0.054011
-0.106758
-0.128734
-0.130297
-0.029444
-0.059271
-0.051277
-0.105874
-0.121288
-0.027167
-0.151638
-0.196899
-0.179879
-0.036665
-0.000860
-0.096702
-0.108223
-0.052860
-0.145867
-0.171223
-0.090547
-0.101230
-0.124282
-0.013675
0.035247
-0.129315
0.018775
-0.086304
-0.106530
-0.008849
-0.043596
0.054632
0.080024
0.127536
0.184028
0.031685
0.182759
0.258685
0.272405
0.177848
0.164790
0.297170
0.199687
0.163685
0.171042
0.088330
0.172075
0.080706
0.098266
0.068931
-0.002189
0.131225
0.088600
0.016124
0.018243
0.023451
-0.087876
-0.071341
0.027919
0.023916
-0.146508
-0.066003
-0.005483
0.004727
-0.027782
-0.004919
-0.105058
-0.231900
-0.257902
-0.112257
-0.246547
-0.172233
-0.159309
-0.106298
-0.058675
0.107367
0.232794
0.454369
0.568048
0.770731
0.936272
1.055762
1.139657
0.886250
0.791602
0.379024
0.142324
0.002416
-0.078768
-0.350670
-0.409543
-0.386613
-0.341558
-0.388774
-0.257697
-0.252773
-0.071443
-0.104763
-0.020550
-0.167677
-0.066505
-0.132948
-0.069159
-0.060812
-0.082916
0.044354
0.009977
0.000164
0.070040
0.035895
0.004123
0.040069
0.069714
0.109659
0.122890
0.010323
0.040877
0.079753
0.054254
0.073529
0.084072
0.245258
0.280808
0.271231
0.167597
0.302137
0.214935
0.287098
0.384781
0.257041
0.368969
0.387685
0.422329
0.333124
0.399191
0.482422
0.487771
0.419321
0.458165
0.354238
0.338346
0.360111
0.412206
0.342294
0.430949
0.387401
0.264282
0.216849
0.332578
0.313406
0.141726
0.252031
0.106963
0.179990
0.196983
0.061300
0.006697
0.143372
-0.025910
0.099098
0.004568
0.006870
-0.049505
0.090352
-0.081643
-0.023506
0.045290
-0.082228
-0.051003
0.056731
0.039378
-0.140883
-0.042665
-0.154103
-0.010752
-0.032319
-0.081281
-0.096105
-0.142792
-0.012406
0.027368
-0.004746
-0.031672
0.042716
-0.074644
-0.127693
-0.047725
-0.111077
-0.091765
-0.141914
0.011351
0.012419
-0.136254
-0.113692
-0.121404
-0.120919
-0.017303
-0.035310
-0.034877
-0.002681
0.037070
-0.126282
0.040627
0.027958
-0.066512
0.018307
0.063842
0.073929
-0.056942
-0.074206
-0.024397
-0.046120
-0.076144
-0.034290
-0.009176
0.155765
0.103317
0.013473
0.173821
0.175212
0.192584
0.182192
0.167709
0.180784
0.146573
0.187941
0.176445
0.320548
0.188791
0.294336
0.232067
0.274257
0.355509
0.284913
0.212878
0.135739
0.178396
0.184697
0.100870
0.035485
0.122880
0.172093
0.054664
0.128800
-0.019613
0.058053
0.095582
-0.016168
-0.006790
-0.011781
0.013818
-0.085037
-0.102384
-0.112276
-0.077423
-0.101056
-0.090354
-0.184301
-0.210388
-0.257211
-0.036211
-0.127613
0.178676
0.212404
0.397090
0.761518
0.982245
1.164890
1.172937
1.114901
0.950595
0.770294
0.525537
0.309872
0.124977
0.009377
-0.140567
-0.313601
-0.220432
-0.262467
-0.324892
-0.123388
-0.053784
-0.136078
-0.058875
0.051578
-0.092160
-0.001778
-0.048922
-0.067121
0.005814
-0.072694
-0.026679
0.031215
0.008904
0.066134
0.003237
0.144555
0.090777
0.155115
0.035430
0.078522
0.145950
0.070915
0.197223
0.117571
0.135760
0.281584
0.150925
0.276320
0.320922
0.381315
0.278593
0.412465
0.341618
0.477504
0.418339
0.502878
0.332747
0.373276
0.369621
0.392665
0.536607
0.487427
0.516767
0.472540
0.398743
0.505003
0.378441
0.505206
0.486049
0.454547
0.432343
0.374713
0.433458
0.287193
0.232517
0.260236
0.191764
0.268337
0.198379
0.221164
0.210392
0.211856
0.161198
0.122722
0.086066
0.014281
0.077481
0.020460
0.109991
0.103479
-0.001968
-0.061418
0.087870
0.121985
0.040991
-0.013326
0.103870
0.082503
-0.007699
-0.065678
0.033365
-0.064638
-0.032166
-0.065346
-0.061795
-0.042529
0.004549
-0.005477
0.088616
-0.032252
-0.029169
0.024426
0.065663
0.094149
-0.013230
-0.024572
0.035691
0.013449
-0.034827
0.091454
0.023932
0.064709
0.000082
0.064289
0.061488
-0.018883
-0.061218
0.047665
0.018881
0.117427
-0.004075
0.070088
0.027419
-0.011036
0.038420
0.071069
0.045308
-0.018947
0.168278
0.025029
0.016583
0.122318
0.062877
0.049479
0.177025
0.214147
0.187300
0.242910
0.166126
0.268314
0.201956
0.249159
0.244336
0.223823
0.396442
0.232677
0.310657
0.330440
0.268499
0.271145
0.323755
0.308245
0.186049
0.154316
0.162334
0.097312
0.195513
0.039357
0.028890
0.183582
0.099041
0.142416
0.037134
0.024822
0.003833
-0.044587
0.059304
0.106346
0.013589
0.017387
0.040798
-0.061339
-0.026225
-0.048022
-0.183168
-0.032524
-0.000955
0.042271
0.250728
0.420656
0.680802
0.847824
1.067397
1.064565
1.240320
1.048314
0.957504
0.723832
0.430619
0.274294
0.125022
-0.106319
-0.259529
-0.352152
-0.207709
-0.330887
-0.234746
-0.126040
-0.159106
-0.058474
-0.090754
0.075630
0.023155
0.037924
0.032790
0.103324
0.037407
0.088065
0.117733
-0.024758
0.045928
0.023952
0.149332
-0.001420
0.118035
0.076208
0.073906
0.147677
0.074868
0.091285
0.268131
0.165947
0.156774
0.150594
0.338117
0.366923
0.267297
0.234492
0.413573
0.330736
0.304109
0.418446
0.314213
0.334990
0.442877
0.530292
0.389385
0.388118
0.370761
0.523003
0.514990
0.538870
0.413091
0.478826
0.356028
0.357152
0.390483
0.399656
0.303944
0.405813
0.354703
0.332226
0.396009
0.212784
0.294966
0.312715
0.191236
0.114959
0.083558
0.063354
0.102141
0.069839
0.070428
0.113995
0.093671
0.011698
0.034528
0.013478
0.085546
0.001706
0.005047
0.028087
0.025659
-0.091205
-0.083007
-0.004663
0.075725
-0.060954
0.017994
-0.101003
-0.111469
-0.010864
0.015812
-0.035384
-0.037548
-0.039211
0.037977
0.010118
-0.064146
0.073282
-0.035215
-0.036674
-0.045139
0.069934
-0.017332
-0.008654
0.048907
-0.082765
-0.068527
-0.071219
-0.108577
0.062939
-0.106217
-0.106005
0.060935
0.047559
0.065891
0.082330
-0.099802
-0.062838
0.040602
0.100534
0.024263
0.026814
0.108979
0.065506
0.003589
0.016100
0.147379
0.036132
-0.001832
0.121268
0.156468
0.193603
0.257296
0.147503
0.257936
0.181115
0.322166
0.290508
0.226416
0.241140
0.324414
0.218608
0.266572
0.244298
0.203377
0.253456
0.296552
0.205808
0.217397
0.109198
0.247972
0.027908
0.130245
0.152955
0.053192
0.133624
0.042853
0.121722
0.041735
0.044939
0.087401
-0.016771
0.008792
-0.089281
-0.036100
-0.147298
-0.132962
-0.109766
-0.213336
-0.223779
-0.249072
-0.179637
-0.139072
-0.046019
-0.042322
0.169366
0.440776
0.580261
0.884789
0.967080
1.081927
1.120948
0.907584
0.759208
0.614412
0.360102
0.079796
-0.110199
-0.293786
-0.294164
-0.299162
-0.328548
-0.273603
-0.271895
-0.090179
-0.078679
-0.144152
-0.036875
-0.003578
-0.129607
-0.024883
-0.072568
-0.018516
0.078955
0.052908
0.066583
0.080445
-0.031873
0.092227
-0.023790
-0.026462
-0.016607
0.130288
0.060033
0.062533
0.166741
0.057752
0.213046
0.143247
0.102614
0.142831
0.212801
0.282955
0.225817
0.176893
0.384607
0.310425
0.392290
0.418505
0.392405
0.372344
0.368779
0.365975
0.303677
0.345533
0.322072
0.464596
0.383329
0.308223
0.354454
0.455927
0.456209
0.341277
0.413764
0.319506
0.386567
0.235436
0.270225
0.192791
0.290023
0.205789
0.148927
0.108936
0.070244
0.135923
0.158698
0.147681
0.129277
-0.009179
0.030085
0.048038
-0.080804
-0.002332
-0.062187
-0.055170
-0.033453
-0.062607
-0.108239
-0.154824
-0.160379
-0.115116
-0.034385
-0.109222
-0.026038
-0.017191
-0.165283
-0.173635
-0.029212
-0.041352
-0.056681
0.010378
-0.139815
0.021130
-0.129369
-0.165590
-0.127295
-0.031379
-0.102254
-0.030730
-0.054741
-0.150583
-0.042824
-0.025816
0.000795
-0.167180
-0.141276
-0.066253
-0.125714
-0.002374
-0.084290
-0.109894
-0.053662
-0.099261
0.004355
-0.108203
-0.075323
-0.007639
-0.080987
-0.105617
-0.069328
-0.102531
-0.045798
-0.000932
-0.067204
0.073520
0.060080
-0.005999
0.110055
0.058373
0.121568
0.064153
0.172914
0.193342
0.206460
0.123132
0.129231
0.212422
0.254664
0.116594
0.154217
0.258938
0.302691
0.130899
0.122652
0.125245
0.066429
0.085303
0.110166
0.068162
0.133844
-0.040489
-0.061007
-0.020675
0.025107
0.049981
-0.130251
-0.091170
0.032555
-0.013534
-0.162064
-0.176177
-0.007606
-0.134095
-0.225959
-0.156239
-0.099610
-0.135105
-0.335628
-0.171707
-0.234927
-0.241772
-0.054519
0.147260
0.249861
0.575520
0.729568
0.991336
1.097708
1.100008
1.077399
0.862520
0.540178
0.386970
0.060182
-0.074663
-0.250988
-0.289223
-0.256005
-0.295508
-0.277281
-0.205952
-0.270546
-0.183248
-0.166657
-0.090251
-0.134601
-0.059038
-0.022896
0.003857
-0.033466
-0.121818
-0.120454
-0.072176
0.005382
0.016467
-0.012947
-0.091927
-0.076496
0.068772
0.012041
0.015895
-0.062655
0.103047
0.070498
0.073306
0.197824
0.091762
0.080638
0.156645
0.258747
0.212968
0.170633
0.193156
0.271515
0.335238
0.197470
0.355871
0.302357
0.375932
0.371839
0.380638
0.447939
0.362009
0.261643
0.422491
0.377297
0.366460
0.376440
0.330503
0.221922
0.305172
0.190164
0.308570
0.145585
0.309719
0.171648
0.274812
0.205696
0.049270
0.114157
0.164547
0.103278
-0.033729
0.119571
-0.074498
0.099977
0.027128
0.046153
-0.104845
-0.011538
0.010054
-0.122661
-0.151476
-0.173136
-0.061477
-0.178912
-0.044837
-0.091412
-0.187373
-0.063234
-0.126982
-0.078234
-0.051821
-0.035375
-0.079395
-0.046641
-0.018103
-0.061174
-0.094331
-0.019538
-0.166537
-0.167776
-0.011371
-0.104625
-0.159744
-0.129604
-0.163746
-0.146093
-0.067615
-0.080143
-0.183395
-0.146332
-0.082698
-0.028673
-0.038583
-0.125996
-0.103509
-0.043472
-0.153913
-0.165019
-0.144596
0.004046
-0.080023
-0.051300
-0.044810
-0.050902
-0.153365
-0.066283
-0.078581
-0.016425
-0.001911
-0.048478
0.075197
-0.039868
-0.053961
0.008549
0.092752
0.074789
0.059277
0.166978
0.118008
0.135310
0.185632
0.198261
0.098499
0.118411
0.117758
0.233677
0.110523
0.154733
0.083243
0.149599
0.125138
0.145869
0.129997
0.124486
0.077787
-0.086214
-0.057622
-0.111027
-0.003982
-0.064477
-0.093722
-0.009856
-0.166183
-0.147175
-0.137929
-0.055667
-0.142468
-0.184311
-0.190532
-0.241031
-0.248020
-0.274312
-0.160499
-0.118943
-0.132595
-0.019912
0.152436
0.401157
0.702547
0.753189
0.997831
1.023235
0.979323
0.914566
0.724368
0.453906
0.102375
0.058514
-0.184871
-0.308470
-0.377108
-0.447414
-0.383417
-0.320685
-0.183194
-0.291203
-0.207246
-0.086829
-0.197385
-0.034599
-0.051180
-0.026346
-0.068859
0.030616
-0.126532
-0.068833
-0.023566
-0.007619
0.049372
0.056551
-0.102055
0.023801
0.004784
-0.020659
0.080495
0.052573
0.103490
0.145907
0.140375
0.045858
0.233976
0.129728
0.146744
0.237318
0.153432
0.199750
0.295558
0.290788
0.256685
0.411226
0.345386
0.388551
0.429594
0.394597
0.372691
0.323041
0.408115
0.443984
0.362902
0.444471
0.265571
0.339469
0.411875
0.311984
0.294526
0.234850
0.179538
0.274962
0.146713
0.122776
0.168800
0.170047
0.231334
0.132924
0.014181
0.052652
-0.033832
0.038301
0.121131
0.111066
-0.069087
-0.055207
0.073462
0.023828
-0.018153
0.021417
-0.018091
0.025074
0.030369
-0.157109
-0.166871
-0.032972
-0.049158
-0.085320
-0.068462
-0.161247
-0.015780
-0.104048
0.004482
-0.008909
-0.056981
-0.155174
-0.125567
-0.167543
-0.140467
0.005664
-0.145819
0.003224
0.005264
0.012214
-0.163578
-0.005740
-0.127586
-0.156620
-0.129521
-0.051575
-0.006564
-0.003320
-0.088304
-0.015241
-0.089376
-0.030684
-0.060242
-0.105994
-0.060805
-0.016174
0.026095
0.006444
-0.093446
-0.006300
0.041773
0.047960
-0.042170
-0.010284
0.082166
0.010306
0.059984
0.158738
0.207912
0.154920
0.088090
0.085781
0.229108
0.155148
0.256747
0.304170
0.290246
0.327215
0.196262
0.320262
0.144951
0.223141
0.226264
0.283030
0.200785
0.148940
0.058156
0.069243
0.147200
0.124607
-0.039467
0.110703
0.107354
0.049793
-0.087848
-0.005754
0.024984
-0.111695
-0.075865
-0.070884
-0.111947
-0.070249
-0.002249
-0.205462
-0.191144
-0.116127
-0.122888
-0.140513
-0.254144
-0.159103
0.138861
0.230363
0.344605
0.725374
0.931071
0.964717
1.175743
1.129594
0.936594
0.833972
0.436664
0.260897
0.057922
-0.096283
-0.326486
-0.398795
-0.401715
-0.297249
-0.246321
-0.158215
-0.073010
-0.181027
-0.092540
0.019850
-0.064044
-0.077563
-0.078739
0.041614
0.019201
-0.113138
0.018860
0.060843
0.037251
-0.020069
0.113612
0.038619
0.055628
-0.022760
0.068660
0.143728
0.122090
0.037581
0.135118
0.236509
0.080541
0.171656
0.260595
0.157376
0.283858
0.252928
0.350513
0.317554
0.383774
0.298339
0.368153
0.408309
0.329197
0.345323
0.347489
0.521994
0.381086
0.409250
0.431890
0.395743
0.473527
0.419401
0.442236
0.348013
0.372013
0.313351
0.379062
0.300752
0.245125
0.259272
0.354356
0.316848
0.218286
0.244429
0.172364
0.170824
0.115464
0.131288
0.033977
0.025623
0.061858
0.020845
0.114112
0.052558
-0.044808
0.009211
-0.026271
0.064838
0.082463
0.074222
-0.062329
-0.020217
-0.108589
0.039104
-0.038222
0.005429
0.075545
-0.042645
0.022027
-0.025586
-0.026030
-0.064738
-0.078855
0.017403
-0.108164
-0.107807
-0.026499
-0.043639
-0.038544
-0.057769
-0.023777
-0.095274
0.085593
-0.095781
0.004446
0.003248
-0.083302
-0.053414
-0.022170
-0.012987
0.057781
0.074703
0.094401
-0.069830
-0.054476
-0.068484
0.002636
-0.045333
-0.026063
-0.010974
0.047552
0.062239
0.133462
0.030286
0.122176
0.004193
0.057423
0.106149
0.201260
0.036403
0.059474
0.248419
0.226478
0.279538
0.283565
0.339926
0.242324
0.265223
0.245650
0.302300
0.210479
0.386185
0.274087
0.240520
0.248170
0.368715
0.291346
0.201188
0.187571
0.194432
0.263448
0.129529
0.119330
0.180670
0.139776
-0.006134
-0.003626
0.016859
0.009025
-0.029512
0.039363
0.027668
0.034479
0.106092
-0.081278
-0.096212
0.021554
-0.067521
-0.123574
-0.206838
-0.117861
-0.191634
-0.100589
-0.117406
0.194057
0.359647
0.491298
0.743283
1.001131
1.171759
1.091506
1.072784
0.976632
0.851455
0.614294
0.309721
0.076616
0.001706
-0.194118
-0.249595
-0.239810
-0.174179
-0.305257
-0.192492
-0.140000
-0.104712
-0.055383
0.071793
-0.093433
-0.095466
0.106801
0.105180
0.076839
-0.060313
0.013605
0.007729
0.139675
0.137356
-0.039315
0.061206
0.156094
0.016084
0.048382
0.038437
0.166701
0.107061
0.077710
0.118186
0.261737
0.267888
0.166625
0.228214
0.221297
0.309443
0.343563
0.245369
0.328227
0.314884
0.475797
0.375293
0.376988
0.351816
0.473542
0.453674
0.415461
0.514185
0.560545
0.564490
0.535269
0.403373
0.515741
0.441936
0.363936
0.402297
0.324160
0.476204
0.471276
0.396795
0.286473
0.351806
0.213686
0.368120
0.286108
0.154651
0.127778
0.098144
0.185832
0.220720
0.188832
0.218494
0.124082
0.062111
-0.021226
0.010340
0.088082
0.028104
-0.033308
0.034130
0.036400
0.074972
0.001852
0.086468
0.071414
-0.000341
-0.001685
0.026345
0.025312
-0.074062
-0.017736
0.011339
0.073600
-0.077695
0.062591
-0.054831
0.005583
-0.083783
-0.004754
-0.091656
-0.033318
0.027895
-0.101211
0.024319
0.072934
-0.015120
0.068662
0.045816
-0.014207
0.017930
0.037092
-0.055798
-0.011164
-0.091843
0.021597
-0.096355
0.026227
-0.058319
0.005809
0.002918
0.051957
0.051485
0.062998
0.011286
-0.004848
0.046391
0.117541
0.139143
0.093549
0.085715
0.105434
0.047340
0.061290
0.172239
0.194678
0.222487
0.126392
0.145549
0.271334
0.247746
0.266680
0.204459
0.276215
0.219573
0.394823
0.331120
0.273876
0.192350
0.302941
0.328036
0.288754
0.270616
0.108148
0.109788
0.201896
0.104518
0.193113
0.033121
0.033464
0.096532
0.046237
0.041255
-0.066736
-0.072358
-0.056842
0.074715
0.019509
-0.008043
-0.139837
-0.076090
-0.149868
-0.194909
-0.114559
-0.103738
-0.259253
-0.109182
-0.096768
0.210389
0.300225
0.519521
0.790854
1.023265
1.181643
1.189839
1.026984
0.932797
0.688074
0.535338
0.366750
0.087155
-0.075005
-0.289378
-0.231476
-0.341611
-0.206184
-0.178523
-0.190666
-0.043543
-0.089915
-0.119267
-0.100945
-0.121976
-0.047280
0.056999
-0.050668
0.029962
-0.063178
-0.033084
-0.012163
0.049805
0.040684
0.037554
-0.043905
0.109452
-0.029229
0.112759
0.168193
0.077912
0.143604
0.173596
0.209143
0.196502
0.226604
0.268116
0.202160
0.156192
0.186866
0.293864
0.374788
0.330024
0.423100
0.276170
0.446665
0.459534
0.477063
0.325800
0.387566
0.370693
0.497489
0.356571
0.504723
0.363483
0.487970
0.351815
0.433675
0.330105
0.285071
0.341495
0.298292
0.335499
0.247231
0.325056
0.200188
0.133926
0.112643
0.275592
0.077167
0.155978
0.066934
0.042233
0.130796
0.107971
0.115082
0.047726
0.088740
0.032595
0.008580
-0.027066
0.001895
-0.023843
-0.017979
0.034711
-0.003550
-0.137657
0.029287
-0.103662
-0.046416
-0.037613
0.001545
-0.053958
-0.158525
0.004075
0.028909
0.003173
-0.082429
-0.062062
-0.031994
-0.023126
-0.006195
0.013765
-0.115701
-0.001422
-0.010658
0.035336
-0.138764
-0.017481
-0.027403
-0.125037
-0.089585
-0.082430
-0.043209
-0.121081
-0.125075
0.024284
-0.087837
-0.144406
-0.117829
-0.055240
-0.075896
0.028591
-0.101197
-0.099942
-0.139049
-0.046958
0.008627
0.018519
-0.021397
-0.082963
0.039963
0.049968
-0.029727
-0.001645
0.109154
0.062061
0.072324
0.118641
0.226672
0.135398
0.243207
0.215022
0.272529
0.282385
0.318034
0.152198
0.299452
0.288701
0.166838
0.140354
0.172338
0.096184
0.220398
0.079617
0.016843
0.061928
0.061397
-0.055442
0.027365
0.019399
-0.058144
-0.041996
-0.036477
-0.022643
0.014586
0.018846
-0.071031
-0.128002
-0.160658
-0.085045
-0.063143
-0.087846
-0.267922
-0.209561
-0.180021
-0.180149
-0.144253
-0.048668
-0.019321
0.239098
0.410152
0.556171
0.804011
1.036958
0.989036
1.021178
0.965999
0.663754
0.476281
0.256084
0.002893
-0.055218
-0.213361
-0.395356
-0.238795
-0.230443
-0.220650
-0.203436
-0.088111
-0.214068
-0.030000
-0.031116
-0.034364
-0.018968
-0.035785
-0.125403
-0.034680
-0.074384
-0.002863
-0.064895
-0.060492
-0.075851
-0.036060
-0.012891
0.002631
-0.026449
0.111100
-0.043304
0.051067
0.155984
0.175750
0.042947
0.146106
0.137504
0.262183
0.242628
0.298250
0.174247
0.159105
0.211201
0.339853
0.393688
0.261460
0.407686
0.432536
0.291064
0.386102
0.440407
0.333199
0.306879
0.415831
0.384232
0.351805
0.342486
0.264309
0.227595
0.393224
0.227349
0.346585
0.253322
0.200893
0.142040
0.229779
0.256702
0.120580
0.071567
0.124788
0.098097
0.045727
-0.030971
0.018205
0.046237
-0.072057
0.025379
0.042060
0.035069
-0.026279
0.004716
-0.019248
-0.031391
0.009607
-0.145929
-0.007859
-0.008320
-0.051704
-0.124800
-0.061486
-0.166927
-0.016672
-0.159732
-0.085102
-0.199847
-0.048561
-0.144351
-0.132758
-0.173064
-0.113576
-0.032733
-0.021718
-0.117041
-0.147057
-0.060048
-0.064971
-0.044796
-0.120846
-0.194554
-0.007278
-0.104194
-0.021376
-0.024345
-0.025018
-0.120902
-0.120801
-0.072037
-0.061472
-0.133999
-0.170523
-0.184922
-0.156766
-0.116586
-0.172137
-0.027131
-0.078757
-0.078875
-0.132024
0.026381
0.058713
0.052433
-0.072290
-0.043936
0.100007
0.036967
0.160090
0.127753
0.071416
0.204427
0.166988
0.112153
0.255561
0.134471
0.213846
0.142516
0.269503
0.208160
0.097924
0.100893
0.193729
0.191666
0.107892
0.155798
0.145052
-0.005098
0.015550
-0.023674
0.071004
0.054309
0.000030
-0.087724
-0.099276
-0.016930
-0.022778
-0.118482
-0.130632
-0.128225
-0.114334
-0.109594
-0.114235
-0.218895
-0.305997
-0.165881
-0.306529
-0.227595
-0.234344
-0.087434
0.075843
0.430338
0.544159
0.786237
0.934129
0.963684
1.096240
0.808273
0.640881
0.321927
0.207545
-0.114873
-0.210405
-0.235277
-0.436342
-0.307745
-0.358807
-0.263921
-0.218947
-0.289754
-0.135927
-0.140085
-0.198780
-0.062104
-0.030443
-0.145348
0.008068
-0.105882
-0.109484
-0.019717
0.034172
0.019776
-0.047024
-0.047730
0.079086
-0.051674
-0.035167
0.005048
0.020941
0.044700
0.003664
0.083041
0.177582
0.059166
0.042234
0.104125
0.189460
0.206663
0.271353
0.268706
0.294875
0.318483
0.288706
0.264832
0.245442
0.340907
0.353134
0.415886
0.394810
0.400574
0.295637
0.320693
0.283729
0.392322
0.347566
0.371251
0.265993
0.211543
0.291841
0.173868
0.292153
0.259055
0.100039
0.116625
0.188974
0.123165
0.110658
0.062641
0.095350
0.046115
-0.003500
0.088950
-0.024026
0.086672
-0.039474
-0.026513
-0.039575
-0.036266
0.019814
-0.090977
0.021487
-0.106748
-0.145108
-0.072644
-0.050080
-0.087338
-0.051693
-0.013669
-0.020226
-0.142164
-0.011147
-0.156571
-0.145787
-0.084701
-0.164583
-0.144883
-0.138149
-0.125184
-0.161334
-0.154398
-0.132148
-0.116510
-0.144120
-0.169573
-0.008349
-0.151845
-0.022540
0.008707
-0.109428
-0.167038
0.006408
-0.021396
-0.125827
-0.068004
-0.158108
-0.000755
-0.018710
-0.131109
0.002055
-0.152476
-0.150741
-0.005406
0.043647
-0.021722
0.043120
-0.039554
-0.036034
0.052658
-0.053919
0.018667
0.149650
0.075765
0.114937
0.106756
0.253073
0.166866
0.279734
0.124127
0.178399
0.200068
0.291699
0.154792
0.164147
0.141239
0.209521
0.110762
0.196515
0.222421
0.157911
0.134095
0.065115
0.093905
0.023978
0.044483
0.074441
0.035033
0.080621
-0.064954
-0.128017
-0.056115
0.026720
0.044461
0.001415
-0.137874
-0.187740
-0.101099
-0.107800
-0.276218
-0.151935
-0.238607
-0.284110
-0.111320
-0.096273
0.091253
0.280897
0.562208
0.846948
0.946701
1.085628
1.000115
0.988014
0.822810
0.620970
0.332078
0.022046
-0.023644
-0.257639
-0.240682
-0.333418
-0.435563
-0.294130
-0.181984
-0.256363
-0.127576
-0.076600
-0.127394
-0.167445
-0.074857
0.013843
0.001619
-0.079953
0.006615
-0.012348
0.014646
0.010109
-0.019011
0.007507
0.062481
0.003016
-0.019991
0.082735
0.030800
0.044017
0.103335
0.002778
0.155129
0.128532
0.209029
0.142225
0.128054
0.233180
0.186165
0.176938
0.259237
0.361308
0.248018
0.273824
0.268340
0.417416
0.473046
0.375006
0.321288
0.350288
0.478281
0.319410
0.317105
0.353338
0.384597
0.421760
0.328323
0.402485
0.359697
0.240863
0.247854
0.313034
0.277849
0.355450
0.330500
0.266819
0.139874
0.219870
0.185773
0.157479
0.185509
0.106374
0.161033
-0.032047
0.067093
-0.007156
0.073274
-0.043294
-0.086146
-0.048761
-0.086181
-0.028298
-0.080941
-0.019885
-0.120522
-0.118748
-0.076235
-0.017628
0.005377
-0.056312
-0.099014
-0.030991
-0.100856
-0.087780
-0.105628
0.015607
-0.121950
-0.027514
0.010095
-0.004801
-0.003977
0.004105
-0.110491
-0.060100
-0.010507
-0.060146
0.033645
-0.104362
-0.043658
0.033083
0.050465
-0.053212
0.040233
-0.097012
-0.050820
-0.026972
-0.026514
-0.038635
-0.101373
-0.027240
0.089785
0.056827
0.009385
0.066048
0.002160
0.036079
0.127418
0.084940
0.043780
0.087709
0.005971
0.176870
0.049631
0.080764
0.182682
0.176906
0.191071
0.139507
0.154902
0.335150
0.246974
0.182479
0.277658
0.358767
0.358692
0.282027
0.269740
0.207217
0.338592
0.156054
0.131978
0.149371
0.242953
0.102715
0.147307
0.062254
0.173770
0.096372
-0.006234
0.133184
-0.039940
-0.041419
0.050360
-0.031250
-0.089232
0.070689
-0.050145
0.052780
-0.060843
-0.116496
-0.016631
-0.081740
-0.203304
-0.082931
-0.157311
0.050039
0.168881
0.255621
0.468087
0.797065
0.892138
1.168680
1.077303
1.108995
1.055373
0.859987
0.503146
0.295120
0.134997
-0.049571
-0.156655
-0.240497
-0.392441
-0.328859
-0.254214
-0.233414
-0.235384
-0.137096
-0.144236
-0.114896
-0.050898
0.036944
0.065674
0.069630
-0.070031
0.081123
0.032782
0.037974
0.110230
-0.054653
0.083475
0.051390
0.035155
0.172829
0.176407
0.101339
0.147040
0.028694
0.143224
0.168134
0.141161
0.270836
0.131673
0.245379
0.160131
0.311758
0.307522
0.308978
0.396282
0.290444
0.307173
0.455481
0.503937
0.379095
0.465350
0.505011
0.515269
0.417593
0.374331
0.483504
0.385266
0.515486
0.542475
0.517935
0.363181
0.497796
0.325630
0.290306
0.398155
0.270019
0.268313
0.335554
0.247235
0.261998
0.247246
0.211313
0.202819
0.193720
0.137092
0.213289
0.095997
0.180434
0.077673
0.025831
0.111668
-0.025893
-0.024467
0.116457
0.041768
0.056044
-0.071304
-0.022202
-0.026812
-0.078588
-0.006572
-0.021273
-0.063831
-0.071980
-0.061086
-0.093693
-0.058070
-0.071901
-0.026739
-0.105650
-0.069905
-0.054360
0.012606
-0.082805
-0.074819
-0.020857
-0.095627
-0.008274
0.087040
0.075748
0.080287
-0.058324
0.024324
-0.097130
0.057283
-0.097173
0.054026
-0.031248
-0.075811
0.085889
0.059533
-0.068929
0.099486
-0.022841
0.032848
0.028796
0.113961
0.117885
0.017129
0.006202
-0.055778
0.089965
0.006254
0.048573
0.145416
0.108415
0.126666
0.090164
0.106376
0.122811
0.230989
0.157755
0.241686
0.213709
0.221233
0.233386
0.292551
0.313985
0.230273
0.215604
0.365346
0.236091
0.329126
0.308677
0.187970
0.305949
0.211797
0.237629
0.134252
0.099509
0.214646
0.139245
0.044154
0.101785
-0.005493
-0.033960
-0.014117
-0.018479
0.055866
-0.035553
0.046863
0.036161
-0.047739
-0.012352
-0.018699
-0.045893
-0.111094
-0.236050
-0.110231
-0.106126
-0.069712
-0.088615
0.021110
0.178315
0.454817
0.622415
0.778440
1.044678
1.115184
1.138622
0.992331
0.910236
0.647187
0.524591
0.199462
0.076646
-0.080393
-0.268698
-0.322151
-0.320471
-0.194898
-0.101979
-0.117491
-0.027953
0.011277
-0.020131
-0.063022
-0.026483
0.014847
-0.079818
-0.017335
0.080743
0.023781
-0.017806
-0.006589
0.106660
0.069180
0.038218
-0.008890
0.178698
-0.008053
0.053705
0.151030
0.155792
0.131555
0.189776
0.089037
0.188597
0.183952
0.297254
0.328684
0.362228
0.256719
0.397769
0.255527
0.334039
0.408294
0.319823
0.317168
0.338669
0.348068
0.417268
0.542236
0.463795
0.408877
0.486137
0.473832
0.528177
0.379315
0.338460
0.457040
0.334516
0.421149
0.283433
0.257252
0.400092
0.362180
0.209958
0.210701
0.164804
0.298987
0.109396
0.133840
0.186302
0.137292
0.172681
0.046486
0.100599
0.067376
0.155549
0.012960
-0.023394
0.038611
0.011936
-0.035004
-0.020252
-0.007577
0.043845
-0.100592
-0.083380
-0.122528
0.005750
0.014751
-0.103254
-0.071313
-0.066635
-0.095145
0.005673
-0.018350
-0.021978
0.056194
-0.124078
0.002153
0.024766
-0.000540
0.066996
0.061233
0.020550
-0.110071
-0.035452
-0.108273
-0.054508
-0.114816
0.053754
-0.008420
0.068074
0.054612
-0.027570
-0.117803
0.012006
-0.111413
-0.018985
0.001806
0.046199
0.003335
-0.103997
-0.056278
0.064129
0.038811
0.015918
0.030335
0.065175
-0.027209
-0.020669
0.004965
0.119360
0.064215
0.020343
0.100696
0.220229
0.170947
0.237200
0.159099
0.134158
0.146217
0.254922
0.224517
0.319932
0.170632
0.285448
0.222107
0.146069
0.316089
0.154586
0.217768
0.239869
0.104088
0.210077
0.195329
0.047540
0.136333
0.025962
-0.031258
0.081353
0.087650
0.065959
-0.033177
-0.078899
-0.023509
-0.078030
-0.121658
-0.115073
-0.142602
-0.142557
-0.106669
-0.106391
-0.133070
-0.280652
-0.294356
-0.265228
-0.153401
-0.081104
0.114808
0.384364
0.475067
0.770350
0.893762
1.046236
1.151023
0.961052
0.986975
0.745660
0.474855
0.096913
0.065952
-0.157662
-0.305218
-0.404426
-0.324920
-0.180153
-0.198662
-0.171180
-0.080144
-0.133371
-0.032485
-0.079859
-0.127585
0.048310
-0.109742
0.023567
0.034938
-0.046595
-0.107680
-0.102619
-0.031287
0.052702
0.097525
0.021601
-0.051331
0.030781
0.029160
0.036685
0.050066
0.200960
0.138575
0.088676
0.241951
0.086187
0.209503
0.252722
0.324139
0.354990
0.211045
0.195791
0.237535
0.262296
0.358970
0.371686
0.421431
0.301614
0.433966
0.398522
0.387254
0.413361
0.488632
0.360046
0.334692
0.335458
0.435513
0.399178
0.274557
0.340912
0.198378
0.367165
0.174415
0.158673
0.252422
0.152461
0.200851
0.064301
0.135111
0.027550
0.033880
0.079433
-0.050057
0.025736
-0.024135
-0.044912
-0.005566
-0.020784
-0.118495
-0.043756
0.014873
-0.024321
-0.123762
0.023695
0.017981
0.004509
-0.103608
-0.053160
-0.018212
-0.098975
-0.038468
-0.015005
-0.046945
-0.068827
0.012215
-0.000489
-0.154080
-0.088574
-0.118529
-0.153710
-0.114829
-0.104845
-0.007124
-0.142159
-0.158303
-0.174451
-0.018221
-0.126295
-0.105433
-0.015468
-0.063668
-0.020203
-0.078700
-0.087517
-0.107698
-0.163634
-0.035219
-0.168961
-0.086675
0.007332
-0.166043
-0.062869
-0.007843
-0.018447
-0.110842
0.059989
0.048426
0.020365
-0.085618
0.082912
0.106537
0.123885
0.075142
0.063289
0.022124
0.131010
0.129787
0.186102
0.119113
0.217711
0.293756
0.246235
0.286490
0.293917
0.292545
0.198220
0.117867
0.231091
0.058566
0.055027
0.194959
0.043690
0.155351
0.082986
0.061519
-0.016051
0.065805
-0.010755
-0.074680
0.023509
0.001369
0.030735
0.025047
-0.057540
-0.184491
-0.148523
-0.155501
-0.196597
-0.128201
-0.176127
-0.149616
-0.244418
-0.259258
-0.179301
-0.180568
-0.085393
0.123158
0.472077
0.551709
0.929999
0.969892
0.992500
1.025503
0.852494
0.717236
0.330859
0.078423
0.032765
-0.272026
-0.212659
-0.335098
-0.413737
-0.302095
-0.291221
-0.219254
-0.172427
-0.112782
-0.218834
-0.047438
-0.117410
-0.155526
-0.003853
-0.000649
-0.005845
-0.050499
-0.080507
-0.046169
-0.041760
0.001067
-0.059227
-0.075911
0.020678
-0.093823
-0.011046
0.082516
0.009723
0.070442
0.038183
0.191353
0.017145
0.085690
0.151527
0.145057
0.135563
0.188296
0.291305
0.306188
0.298320
0.255643
0.267603
0.224474
0.398901
0.251513
0.381855
0.365399
0.340151
0.351984
0.388729
0.289459
0.315834
0.385175
0.242990
0.336541
0.344666
0.305970
0.292176
0.257586
0.266963
0.190838
0.105492
0.119163
0.203755
0.144848
0.070697
0.156613
0.059863
-0.031801
0.058134
0.060434
0.058422
-0.032827
-0.118716
-0.120450
-0.043261
-0.041697
-0.034832
-0.098007
-0.159388
-0.130250
-0.054152
-0.157776
-0.056513
-0.127857
-0.203484
-0.078850
-0.082679
-0.065815
-0.048710
-0.072118
-0.151999
-0.075552
-0.052551
-0.146243
-0.040163
-0.187635
-0.020798
-0.002466
-0.117632
-0.147518
-0.147985
-0.131225
-0.040806
-0.070505
-0.047659
-0.015771
0.004292
0.000476
-0.098978
-0.097747
-0.178560
-0.130146
-0.005053
-0.050725
-0.128610
-0.096615
-0.106861
-0.076469
-0.140223
-0.076332
0.024272
-0.132347
-0.065583
-0.117798
0.049574
0.061262
0.085801
0.068097
0.147565
0.095331
0.172120
0.027387
0.041241
0.096028
0.186986
0.239591
0.270425
0.119093
0.275936
0.291027
0.207540
0.101856
0.256546
0.096010
0.205611
0.088615
0.137298
0.160869
-0.005518
0.119376
0.099193
0.058927
0.027288
0.066298
-0.053433
-0.053463
-0.107429
0.001051
0.008823
-0.027080
-0.155596
-0.175538
-0.194196
-0.198697
-0.180399
-0.238065
-0.199953
-0.193135
-0.263417
-0.120536
-0.143923
0.066605
0.301145
0.386228
0.681914
0.928887
0.973487
1.134268
1.028001
0.951528
0.711513
0.440513
0.225939
-0.091559
-0.170364
-0.326391
-0.323734
-0.367677
-0.373557
-0.400459
-0.260987
-0.207551
-0.165241
-0.136795
-0.132146
-0.071223
-0.048605
-0.053128
-0.082322
-0.156648
-0.008500
-0.085591
-0.083795
-0.088007
-0.060891
-0.030810
-0.067446
-0.018152
-0.095519
-0.060540
-0.050521
0.042971
0.144635
0.045242
0.180300
0.071545
0.075058
0.071856
0.191419
0.202370
0.232939
0.291034
0.156739
0.369675
0.207773
0.387835
0.271359
0.400034
0.373874
0.317398
0.400264
0.453672
0.356298
0.455243
0.463067
0.459244
0.447277
0.306227
0.255532
0.258691
0.369865
0.271673
0.235144
0.197274
0.226893
0.200548
0.235039
0.094543
0.089167
0.161791
0.224191
0.163816
0.061750
0.157622
0.146386
0.007448
-0.023381
0.002085
0.047785
-0.092271
0.034361
-0.077112
-0.113704
0.043223
0.010891
-0.132912
-0.016556
-0.119045
-0.148031
-0.126778
-0.010955
-0.135473
0.001292
-0.021154
0.003167
-0.165431
-0.122318
-0.086729
-0.085412
-0.119177
0.009526
-0.146824
-0.030451
-0.113077
-0.139097
-0.039937
0.034349
-0.009291
-0.135014
-0.121308
-0.090743
-0.137075
-0.000420
-0.049364
-0.117903
-0.034104
-0.106312
-0.116625
-0.026477
-0.086457
-0.046199
-0.101212
-0.119365
-0.075102
-0.092278
0.041071
0.016866
-0.046553
0.024195
-0.021604
0.021349
-0.047128
0.071379
0.048242
0.058933
0.145629
0.031673
0.169964
0.064673
0.190063
0.168685
0.184187
0.272230
0.282109
0.312329
0.277839
0.255828
0.202836
0.194583
0.329447
0.228404
0.211036
0.212080
0.204515
0.159086
0.212190
0.116560
0.056624
0.123709
0.161702
-0.000925
0.103109
0.009684
0.020957
0.094047
-0.015375
0.024455
-0.030197
-0.081884
0.046077
0.036657
-0.059547
-0.142079
-0.033252
-0.211022
-0.143562
-0.194500
-0.105043
-0.218952
-0.041853
0.091496
0.202376
0.597014
0.834727
0.898702
1.073579
1.187407
1.070757
1.054213
0.692277
0.552243
0.188239
0.015163
-0.059862
-0.307199
-0.339816
-0.269930
-0.348271
-0.242722
-0.175003
-0.126187
-0.089257
-0.118132
-0.012135
0.011568
0.002752
-0.088120
-0.058386
-0.051362
0.090680
0.053682
0.042680
0.076218
-0.009907
0.091279
0.087929
0.074232
-0.037871
0.168030
0.136684
0.061032
0.019327
0.119378
0.158707
0.167634
0.132101
0.262486
0.271557
0.282598
0.325676
0.248616
0.300055
0.418481
0.430602
0.290597
0.476442
0.419017
0.324565
0.410070
0.392971
0.430262
0.401538
0.399047
0.544468
0.520556
0.525906
0.529413
0.526999
0.338908
0.495951
0.474207
0.287117
0.316061
0.435536
0.322203
0.299570
0.203656
0.268970
0.223508
0.196277
0.107165
0.239681
0.260396
0.120636
0.116650
0.187005
0.015158
0.174094
0.073552
0.021882
0.043214
0.076618
-0.036183
0.029992
0.033868
-0.065514
0.089159
-0.064020
0.065320
-0.066773
-0.024250
0.062745
-0.002466
-0.111139
-0.062635
-0.067049
-0.073521
0.019561
-0.004181
-0.073469
0.084015
-0.106699
0.018541
-0.091325
-0.033423
-0.044323
-0.090496
-0.053505
0.072680
0.029274
-0.005741
-0.012475
0.006292
-0.036952
-0.064987
-0.078438
0.016569
-0.026838
-0.083664
-0.031527
0.022398
0.005348
0.062897
0.073303
0.090478
0.027895
-0.074418
0.113484
0.107223
-0.035753
0.074660
-0.037952
0.134816
0.087238
0.049853
0.024070
0.031298
0.233274
0.077768
0.210521
0.174282
0.232503
0.310566
0.318304
0.320097
0.303485
0.277059
0.382933
0.360661
0.224933
0.215789
0.369932
0.305503
0.305900
0.274577
0.190055
0.254981
0.277595
0.154213
0.120515
0.069478
0.153386
0.108146
0.148218
0.075301
-0.000656
0.108710
0.126251
0.050085
0.048318
0.041560
0.034499
-0.085246
-0.080499
-0.015084
-0.102730
-0.095979
-0.198880
-0.103432
-0.139688
-0.193055
-0.159198
0.125594
0.211556
0.423158
0.627019
0.926302
0.977463
1.117059
1.210040
1.225614
0.930712
0.770270
0.530887
0.271100
0.064030
-0.133802
-0.262851
-0.308515
-0.268709
-0.212038
-0.294469
-0.061314
-0.111761
-0.073041
0.022115
-0.056060
0.057943
-0.024772
-0.063166
0.052077
0.009753
0.102479
-0.045911
0.126363
-0.027400
0.131006
0.111320
0.101795
0.093980
0.051905
0.155320
0.136990
0.218164
0.083972
0.247009
0.286515
0.182253
0.165787
0.242914
0.253451
0.217743
0.390617
0.309887
0.377422
0.348563
0.470010
0.442652
0.506686
0.513729
0.379925
0.487886
0.382173
0.566155
0.522174
0.417828
0.497924
0.438425
0.492288
0.461047
0.505149
0.435959
0.354056
0.406640
0.452242
0.354744
0.280818
0.363785
0.263102
0.261358
0.244249
0.169864
0.315495
0.293736
0.084189
0.163946
0.082743
0.197028
0.180775
0.109929
0.044443
0.045498
0.109311
0.081730
-0.038937
0.051361
0.057305
0.065141
-0.047304
-0.052887
-0.099041
0.011352
0.037742
0.062105
-0.095995
-0.025460
0.049249
-0.009246
-0.029502
-0.016720
-0.035605
0.003481
0.001794
-0.072008
0.026173
0.020285
0.055319
-0.054698
0.052387
-0.044918
0.036087
0.075915
0.034210
-0.088887
-0.004453
0.049474
-0.004834
-0.093472
0.028780
-0.022460
-0.103680
0.031588
-0.010206
0.090062
-0.022839
-0.046410
-0.054618
0.033531
-0.018942
-0.058313
-0.036567
0.048064
0.023824
0.040951
0.133722
-0.028028
0.099917
0.013822
0.076745
0.134593
0.092408
0.176831
0.222249
0.263709
0.332911
0.231831
0.341990
0.213938
0.316756
0.285207
0.281345
0.260241
0.204715
0.327192
0.171408
0.295640
0.277904
0.147373
0.092135
0.162865
0.196640
0.145278
0.041681
0.027669
0.012302
0.087989
0.080393
-0.009810
0.101474
0.093006
0.015071
0.030558
0.057724
-0.111681
-0.066544
-0.010116
-0.083729
-0.078557
-0.258726
-0.097670
-0.147313
-0.063157
-0.112479
0.055955
0.197305
0.474888
0.552619
0.849906
0.975133
1.176889
1.186383
0.954367
0.832321
0.699495
0.354386
0.088229
-0.097617
-0.220553
-0.190079
-0.291988
-0.189555
-0.246937
-0.203318
-0.116710
-0.102165
-0.142376
-0.043571
0.063226
-0.008887
-0.069745
-0.059932
0.011358
0.092802
-0.078034
-0.046988
-0.042377
0.031161
0.017606
0.104477
-0.011665
0.105122
0.098050
0.159879
0.131648
0.171487
0.190211
0.182336
0.125933
0.123814
0.211055
0.210369
0.162642
0.179474
0.318588
0.273316
0.267340
0.400356
0.385450
0.421962
0.409776
0.446606
0.492777
0.343138
0.474039
0.341607
0.459752
0.501846
0.345194
0.494131
0.484222
0.370708
0.318092
0.266871
0.405449
0.334495
0.310544
0.244860
0.325950
0.144851
0.149731
0.269539
0.105111
0.072058
0.180792
0.149344
0.082275
0.042847
-0.017523
-0.036922
0.023523
0.099667
-0.051657
-0.089256
-0.014918
-0.064287
0.023345
-0.136424
-0.093086
-0.014933
-0.112773
0.043494
-0.006000
-0.092571
-0.050349
-0.062788
-0.114706
0.001140
-0.029437
-0.003787
-0.008504
-0.130948
-0.019605
-0.007024
-0.084862
-0.118270
-0.041427
-0.103747
-0.077785
-0.091841
-0.101940
-0.154947
-0.093227
-0.023477
-0.054186
0.020212
-0.139992
0.037923
-0.128034
-0.034769
-0.077810
-0.073080
0.006068
-0.042415
-0.057415
-0.142653
-0.078507
-0.083307
-0.052202
-0.080010
0.018604
-0.035703
-0.058873
-0.060305
0.060687
0.009181
-0.021283
0.113734
0.173413
0.044137
0.112372
0.105514
0.099308
0.147317
0.151156
0.242663
0.303904
0.271047
0.299078
0.288015
0.114778
0.163908
0.092723
0.197597
0.090761
0.117327
0.012241
0.148400
0.079997
-0.003352
0.115833
-0.075981
-0.098733
0.002706
0.061876
-0.115962
-0.075037
-0.102014
-0.138717
-0.096894
-0.124515
-0.034803
-0.072211
-0.136992
-0.184478
-0.276652
-0.292183
-0.270793
-0.244405
-0.170266
0.109736
0.266769
0.506792
0.723020
0.784595
0.945161
0.975491
0.985944
0.812739
0.661988
0.318330
0.102724
-0.013127
-0.173656
-0.283221
-0.249603
-0.319454
-0.297984
-0.362132
-0.274969
-0.200913
-0.087307
-0.101666
-0.047385
-0.078868
-0.012062
-0.124652
0.026471
-0.026314
-0.103916
-0.090973
-0.121752
0.002441
0.060492
-0.002289
0.075154
0.031495
0.110304
0.056397
0.103216
0.134163
0.165964
0.053995
0.130861
0.083603
0.062672
0.096780
0.152689
0.217858
0.162605
0.257478
0.297811
0.291330
0.374760
0.230553
0.233317
0.370918
0.283021
0.353341
0.378294
0.325962
0.334599
0.454804
0.278102
0.426402
0.406216
0.249430
0.241331
0.345365
0.212716
0.277785
0.230463
0.273968
0.250264
0.187214
0.227709
0.076726
0.173532
0.020178
0.086730
0.029850
0.065535
0.028264
-0.019990
-0.080243
-0.078477
-0.072783
-0.124724
-0.086265
-0.090088
-0.114777
0.008441
0.011893
-0.006652
-0.140584
-0.183248
-0.132819
-0.025598
-0.202450
-0.175392
-0.147345
-0.178242
-0.196008
-0.023050
-0.009681
-0.117030
-0.170291
-0.002651
-0.060294
-0.062729
-0.119910
-0.000616
-0.016322
-0.168549
-0.110384
-0.115170
-0.008205
-0.116849
-0.035309
-0.194018
-0.089777
-0.051147
-0.148318
-0.134229
-0.030320
-0.010997
-0.026121
-0.054956
0.012957
-0.047167
-0.137982
-0.145247
-0.128557
-0.142384
-0.029569
-0.008838
-0.069721
-0.084478
0.076190
-0.066898
0.122720
-0.011630
0.150397
0.121439
0.052929
0.058019
0.189859
0.082822
0.189631
0.194076
0.140267
0.233534
0.190256
0.193608
0.180968
0.230539
0.133520
0.186743
0.055921
0.103808
0.022496
-0.001030
0.077587
0.102443
0.025778
-0.058739
-0.008464
-0.041952
0.025708
-0.021763
-0.043118
0.004410
-0.017698
-0.067958
-0.163483
-0.032232
-0.110985
-0.134987
-0.146189
-0.258994
-0.298919
-0.273661
-0.100230
-0.159891
0.005290
0.115818
0.485047
0.649575
0.790660
1.109290
1.092849
0.986032
0.771868
0.581191
0.379096
0.120824
0.009147
-0.292894
-0.321460
-0.326172
-0.330267
-0.288236
-0.266493
-0.244361
-0.276908
-0.174719
-0.136688
-0.075307
-0.096643
-0.148779
-0.092854
-0.174235
-0.015258
-0.132737
-0.062249
-0.014623
-0.141248
-0.060467
-0.119627
-0.022735
-0.001121
-0.043413
0.084818
0.072643
0.073444
0.149531
0.152019
0.178335
0.154237
0.048069
0.102475
0.141677
0.271914
0.256787
0.185249
0.178212
0.323119
0.349953
0.258258
0.380441
0.319617
0.422639
0.409815
0.313939
0.307262
0.342652
0.426847
0.312638
0.414467
0.306708
0.344495
0.281576
0.338441
0.282010
0.245162
0.222982
0.236011
0.287536
0.192147
0.272829
0.149975
0.053358
0.057405
0.110860
0.169842
0.085301
0.107886
0.041969
0.021652
-0.097921
-0.054600
0.007169
0.040202
-0.000808
-0.004757
-0.007960
-0.152423
-0.014592
-0.171482
-0.108779
-0.048482
-0.068306
-0.028134
-0.172096
-0.173448
-0.088573
-0.152731
-0.168961
-0.142984
-0.073934
-0.165704
-0.167256
0.006461
-0.078939
0.017074
-0.034813
-0.035051
-0.117940
0.013245
-0.093653
-0.153910
-0.164741
-0.092752
-0.051198
-0.167575
-0.108693
-0.098274
-0.029081
-0.098230
-0.138972
-0.056310
0.019584
-0.102769
-0.051469
0.004756
-0.089971
-0.143955
0.007037
-0.078978
0.056942
-0.118805
-0.015382
-0.070382
-0.027310
0.038353
0.015089
0.128824
0.090509
0.043659
0.203464
0.059282
0.175770
0.213448
0.280330
0.269741
0.205343
0.307930
0.241413
0.169284
0.231397
0.154780
0.178264
0.187663
0.103943
0.149382
0.204298
0.217747
0.197963
0.052205
0.100668
0.137248
0.066510
-0.040375
0.080393
0.095309
-0.044455
-0.066261
-0.010357
0.015481
-0.013475
-0.144644
-0.106003
-0.162082
-0.185608
-0.099856
-0.185014
-0.192479
-0.244713
-0.108751
-0.179996
-0.094931
0.180316
0.391636
0.590834
0.919428
1.004344
1.081031
1.119107
0.926228
0.891605
0.541810
0.279826
0.112606
-0.123286
-0.244435
-0.289158
-0.255508
-0.254760
-0.373991
-0.306906
-0.232052
-0.058244
-0.148569
-0.096623
-0.091687
-0.056503
-0.108298
0.027520
-0.081145
0.040627
0.058605
-0.104783
0.065703
-0.034623
-0.060856
0.010265
-0.031034
-0.040675
0.113675
0.146172
0.146865
0.063385
0.193159
0.184317
0.068339
0.208692
0.109448
0.134537
0.238934
0.302757
0.233874
0.394370
0.333116
0.423733
0.302075
0.440201
0.376965
0.312731
0.327108
0.479029
0.350346
0.531771
0.436279
0.484693
0.404691
0.343982
0.486940
0.361217
0.312612
0.299472
0.414268
0.341068
0.377110
0.386414
0.273841
0.284537
0.306564
0.216209
0.268608
0.188389
0.251319
0.110491
0.179613
0.045943
0.071406
0.091613
0.039070
0.098641
0.119392
0.119300
0.100790
0.071974
0.059580
0.044179
0.017200
0.028342
-0.051776
-0.007145
0.067168
0.021122
0.033649
-0.005058
0.073005
-0.112281
-0.011415
-0.062255
-0.076000
-0.078757
-0.075840
-0.052680
-0.035613
0.016526
-0.033453
-0.015802
0.043424
-0.055740
0.030313
-0.097024
-0.013483
0.055955
0.010563
0.019764
0.049531
0.034926
0.047344
-0.025587
0.082157
0.098625
-0.092151
0.016174
0.050678
0.096830
-0.079542
0.099835
0.036330
-0.046507
-0.007143
-0.012471
-0.044295
-0.004165
0.027260
0.178753
0.190397
0.112225
0.148031
0.195801
0.268741
0.281009
0.112479
0.309896
0.199632
0.185422
0.362404
0.374761
0.255803
0.358122
0.289957
0.344986
0.200976
0.358240
0.335119
0.215740
0.312496
0.183960
0.131705
0.221845
0.103241
0.079291
0.097741
0.148988
0.075436
0.036651
0.100596
0.022006
0.135994
-0.038231
0.114579
0.110273
-0.079521
-0.088826
-0.009054
0.006062
-0.033557
-0.095125
-0.168094
-0.135619
-0.066630
-0.028007
-0.063198
0.056238
0.308766
0.449599
0.754591
0.959258
1.026879
1.157284
1.170665
0.946838
0.832344
0.498683
0.336797
0.078199
0.017883
-0.176809
-0.154452
-0.330623
-0.147848
-0.221854
-0.214665
-0.193189
-0.078679
-0.033231
-0.011274
-0.078140
-0.010375
-0.011416
0.112975
0.087899
-0.004816
0.017323
0.156344
0.155639
0.129560
0.149674
0.004029
0.031760
0.115620
0.162131
0.076013
0.133494
0.254798
0.280198
0.257346
0.138366
0.227487
0.198106
0.234507
0.285988
0.269275
0.276844
0.348993
0.325830
0.488171
0.390924
0.402629
0.542699
0.421438
0.544418
0.447433
0.379081
0.533528
0.466947
0.405437
0.545117
0.461728
0.360794
0.534367
0.408367
0.490823
0.474789
0.286037
0.436912
0.415786
0.242131
0.391155
0.260756
0.339892
0.242592
0.164634
0.251476
0.196257
0.098721
0.116186
0.038024
0.207605
0.099691
0.173061
0.015938
0.099641
0.046415
-0.003857
0.105169
-0.010202
-0.050685
-0.002249
-0.040530
0.015168
0.015052
0.093521
0.098413
0.099815
0.009746
0.026257
0.109393
0.025558
0.034964
-0.057450
-0.025656
0.058542
0.026507
-0.056791
0.024751
0.039854
0.051871
0.050243
-0.025355
-0.055366
0.109216
0.031002
-0.041766
-0.029606
-0.063795
0.054219
0.107335
-0.049729
0.053776
0.077493
0.102506
0.025544
0.002332
0.078426
0.021851
0.049192
0.004655
-0.000411
0.099241
-0.036933
0.101366
0.024432
0.128092
0.067945
0.201312
0.126136
0.212228
0.143622
0.185610
0.183075
0.259324
0.239207
0.205243
0.222629
0.342906
0.260614
0.375862
0.240807
0.336052
0.239524
0.307307
0.228666
0.235777
0.264683
0.173739
0.142575
0.208088
0.196297
0.127361
0.045193
0.062977
0.092189
0.121125
-0.032394
0.092926
0.106066
0.090064
0.099278
-0.012078
0.069734
-0.029548
-0.143716
0.010783
-0.103305
-0.186385
-0.180173
-0.189914
-0.057392
-0.130685
0.144514
0.294615
0.522497
0.786475
0.846590
1.126474
1.127439
1.169958
0.907832
0.816822
0.431773
0.265305
0.146652
-0.022409
-0.227259
-0.217472
-0.278294
-0.242914
-0.166975
-0.038408
-0.172881
-0.077589
-0.079926
-0.021825
-0.018282
0.074250
0.030954
0.068157
0.035520
0.051950
-0.015570
0.082846
0.019975
0.098707
0.164433
0.120158
0.109450
0.035629
0.182765
0.126030
0.094873
0.099690
0.259243
0.248396
0.272298
0.156959
0.217409
0.238262
0.235286
0.408999
0.274302
0.301656
0.334431
0.354587
0.404231
0.419076
0.341929
0.426949
0.411905
0.448337
0.495999
0.457368
0.372658
0.374097
0.332928
0.414840
0.327532
0.400352
0.347131
0.338231
0.297416
0.290050
0.253424
0.348279
0.280379
0.280224
0.272118
0.249192
0.144536
0.055552
0.032535
0.184068
0.173960
0.040358
0.114566
0.078742
0.101314
0.095928
-0.028893
-0.070348
0.020738
-0.076818
-0.103452
-0.044374
0.062845
-0.087739
-0.045686
-0.033209
-0.095217
-0.010355
-0.132116
0.028032
-0.067694
-0.099740
-0.080536
0.000553
-0.045420
0.044574
-0.078055
-0.023123
-0.075092
0.054412
0.016743
-0.019219
-0.047148
0.027749
-0.009839
-0.061800
-0.122355
0.015766
0.065943
-0.016833
-0.092523
0.020260
0.066261
-0.066893
0.017188
0.020443
0.018785
0.008843
0.075027
-0.031037
0.026931
0.066396
-0.086837
-0.053160
-0.078493
0.105843
0.058999
-0.019433
0.064962
0.009289
0.059213
0.067986
0.151159
0.238406
0.118255
0.188461
0.293742
0.222204
0.340552
0.217729
0.297759
0.271779
0.156878
0.135631
0.295708
0.112749
0.134634
0.076495
0.175572
0.150114
0.018870
0.136465
0.029083
0.012468
0.047034
-0.079986
-0.002363
0.071581
-0.009983
-0.007455
-0.012131
-0.068894
-0.068027
-0.144032
-0.105751
-0.129338
-0.118779
-0.145891
-0.277478
-0.165438
-0.079784
-0.108369
0.150835
0.333109
0.467061
0.768771
0.934358
1.010035
1.039346
0.974876
0.744071
0.546459
0.250367
0.144804
0.001566
-0.244299
-0.352786
-0.263270
-0.283530
-0.346527
-0.278897
-0.144682
-0.084455
-0.086407
-0.140237
-0.136666
-0.062818
-0.036170
-0.150968
0.032784
0.003640
-0.066685
-0.012230
-0.020496
-0.055841
-0.075113
0.090205
0.041990
0.017263
0.007223
-0.020365
0.113145
0.048275
0.004675
0.176307
0.143177
0.163764
0.117835
0.214943
0.182896
0.263781
0.263529
0.338705
0.226950
0.192504
0.352321
0.383146
0.309305
0.308792
0.432243
0.353424
0.448143
0.399534
0.288832
0.351334
0.321485
0.406508
0.339911
0.241239
0.297709
0.382508
0.261431
0.184330
0.248937
0.302181
0.259228
0.085385
0.218030
0.213781
0.202678
0.146353
0.014465
-0.000314
-0.049904
-0.029397
-0.070233
0.030452
-0.040740
0.007400
0.048451
0.004189
-0.053695
-0.077861
-0.136049
-0.157587
-0.049469
-0.077053
-0.097765
-0.035151
-0.148545
-0.105184
-0.183420
-0.138624
-0.072531
-0.028259
-0.050853
-0.040561
-0.106926
-0.145282
-0.111214
-0.144095
-0.129743
-0.078240
-0.117581
-0.015831
-0.135516
-0.049166
-0.157938
-0.137943
-0.144602
-0.059355
-0.164237
-0.090873
-0.156432
-0.164668
-0.043990
-0.011538
-0.149433
-0.158303
-0.030551
-0.065963
-0.030741
-0.071034
-0.118488
-0.053366
-0.131763
-0.081847
0.034140
-0.052666
0.044487
0.088188
0.022471
0.065257
0.057023
0.117817
0.117108
0.037834
0.195665
0.072030
0.199069
0.262770
0.175443
0.112608
0.104656
0.245519
0.084782
0.195779
0.132602
0.124083
0.106188
0.090828
0.151557
0.110300
0.125384
0.080907
-0.028995
-0.071280
0.003793
-0.119425
0.023911
-0.045921
-0.015507
-0.059665
-0.151035
-0.177676
-0.038232
-0.187675
-0.226679
-0.148429
-0.205340
-0.237857
-0.172717
-0.329203
-0.180619
-0.143617
0.014308
0.099924
0.227408
0.468712
0.770060
0.900728
0.996788
0.930817
0.973845
0.676576
0.525608
0.296505
0.067303
-0.098299
-0.243669
-0.340987
-0.480200
-0.290497
-0.369896
-0.388526
-0.203696
-0.106139
-0.160644
-0.127124
-0.198571
-0.091547
-0.102634
-0.149709
-0.070302
0.001973
-0.089463
-0.144406
-0.052252
-0.034603
-0.071801
-0.136612
0.054904
-0.124001
0.028761
0.011312
0.099731
0.003903
0.043176
0.116570
0.055287
0.027379
0.128785
0.154423
0.219527
0.274481
0.164628
0.116144
0.147921
0.246937
0.368530
0.195002
0.274853
0.248198
0.398211
0.361063
0.417102
0.396529
0.342021
0.257579
0.343894
0.315554
0.342311
0.408664
0.395255
0.387908
0.274764
0.298812
0.164729
0.153153
0.142880
0.258393
0.069737
0.171548
0.049287
0.154563
0.036213
0.112352
0.097288
-0.019640
-0.058454
-0.081761
0.054406
0.000922
-0.127926
-0.034387
-0.141975
-0.163703
-0.038266
-0.154904
-0.198717
-0.199094
-0.126825
-0.092126
-0.202701
-0.212174
-0.097391
-0.141841
-0.178409
-0.084949
-0.098067
-0.037122
-0.125581
-0.194065
-0.004403
-0.194660
-0.177441
-0.110273
-0.040582
-0.119435
-0.048367
-0.130503
-0.128821
-0.074333
-0.007791
-0.159631
-0.170690
-0.101579
0.002865
-0.032756
-0.159031
-0.031338
-0.044708
-0.125693
-0.156564
0.015104
-0.026696
-0.076041
-0.099853
-0.118331
-0.047487
-0.139538
-0.017526
-0.104720
0.041465
-0.001148
-0.104687
0.072854
-0.052579
-0.016406
0.031889
0.017701
0.131453
0.044023
0.206937
0.199360
0.135192
0.242199
0.270989
0.167018
0.222720
0.120911
0.264557
0.302941
0.294434
0.218470
0.153509
0.052995
0.104265
0.149240
0.071698
0.017934
0.142484
-0.017813
-0.076267
-0.046281
0.049121
0.035575
-0.107970
-0.115679
-0.135251
0.011014
-0.045106
-0.103984
-0.033307
-0.068437
-0.176077
-0.138666
-0.198436
-0.280512
-0.215763
-0.148023
-0.122651
-0.008796
0.062923
0.214098
0.404397
0.613021
0.892151
0.963123
1.118448
1.114559
0.807905
0.664810
0.448448
0.229544
-0.088309
-0.123571
-0.310044
-0.443947
-0.454482
-0.445813
-0.290714
-0.201919
-0.285591
-0.246484
-0.097409
-0.020803
-0.104054
-0.019421
-0.067561
-0.110910
-0.082599
-0.058634
-0.003237
-0.024822
-0.040135
-0.074039
0.011596
-0.099788
-0.084732
0.062653
-0.068313
0.070778
0.133238
0.151329
0.046947
0.168377
0.137830
0.230157
0.223039
0.138891
0.303737
0.269999
0.202485
0.283719
0.334996
0.294286
0.230591
0.430461
0.351460
0.285287
0.291154
0.416520
0.358967
0.451388
0.418892
0.449327
0.434046
0.361940
0.402575
0.444381
0.409375
0.455449
0.377856
0.278702
0.301754
0.243069
0.325019
0.257004
0.153565
0.248245
0.222707
0.250815
0.147535
0.122749
0.144019
0.180970
0.041974
-0.034533
0.100777
-0.050410
0.027319
0.068544
0.008149
0.050048
-0.055531
-0.046485
-0.037850
-0.084492
0.013673
-0.046730
-0.023257
-0.048712
0.015846
0.006297
-0.054779
0.020117
-0.052871
0.041332
-0.135086
-0.072788
-0.028780
-0.102602
-0.009423
-0.010340
0.008101
0.014262
-0.017832
0.021992
-0.080964
-0.085936
-0.124930
0.008397
-0.045791
-0.109238
0.008687
0.064383
-0.043120
-0.095526
-0.127115
-0.072030
-0.036688
-0.116573
-0.111524
-0.112178
0.012471
-0.109491
0.059872
-0.069041
-0.057100
-0.078605
0.092886
-0.049181
-0.001122
-0.044021
0.072195
0.045030
0.078539
0.199708
0.054466
0.230994
0.155376
0.272429
0.170690
0.301884
0.148348
0.300063
0.341658
0.237755
0.309884
0.383875
0.287472
0.342607
0.308841
0.165776
0.165474
0.322592
0.157850
0.100098
0.068407
0.144708
0.067667
0.166869
0.102750
0.038899
0.062006
0.030323
0.048156
0.126681
-0.059146
-0.072882
-0.037733
0.017413
-0.043048
-0.000888
-0.087646
-0.165563
-0.146955
-0.078956
-0.128176
-0.167325
-0.203922
-0.083629
-0.020290
0.083708
0.243065
0.647749
0.873479
1.081819
1.189872
1.200929
1.059062
0.920512
0.654724
0.474823
0.316143
0.012454
-0.206481
-0.310876
-0.237010
-0.333937
-0.348064
-0.250405
-0.149552
-0.157299
-0.055493
-0.018411
0.057025
0.032632
-0.078329
0.042920
-0.041247
0.091814
0.047227
-0.061846
0.072903
0.025936
-0.005555
0.088822
0.083796
0.127025
0.052704
0.146235
0.019082
0.049433
0.218908
0.125426
0.273459
0.213833
0.166290
0.204496
0.251636
0.229882
0.355416
0.268504
0.273362
0.403347
0.409240
0.431150
0.340187
0.399426
0.462759
0.377681
0.389038
0.525743
0.532846
0.546193
0.394457
0.496458
0.475861
0.527582
0.496256
0.341295
0.492251
0.399901
0.386354
0.374021
0.329178
0.308182
0.251497
0.211137
0.311121
0.151405
0.325612
0.120879
0.164418
0.133405
0.179652
0.130495
0.020472
0.009028
0.067874
0.068259
0.153677
0.010295
0.074833
0.068275
-0.070503
0.064298
0.009859
-0.071672
-0.002661
-0.023434
0.088848
-0.053089
0.055426
0.077400
0.078708
-0.056764
-0.034267
-0.097088
-0.016315
0.064040
0.069622
-0.081159
0.096597
-0.066527
0.059046
0.004935
0.050091
0.061953
0.096655
0.028527
-0.031764
0.087031
-0.019924
-0.067220
-0.018070
-0.002346
0.052315
0.090652
-0.065449
0.087934
-0.068025
-0.041097
-0.081157
-0.001710
0.056637
0.082904
0.032744
0.044805
0.038221
0.133550
0.133094
0.081166
0.078687
0.058919
0.037529
0.149718
0.068381
0.083763
0.097903
0.261509
0.138998
0.209399
0.307564
0.346659
0.203241
0.313140
0.277394
0.247158
0.379227
0.329137
0.366930
0.261943
0.360569
0.187226
0.263793
0.254494
0.116613
0.246010
0.254155
0.193990
0.121575
0.124165
0.064157
0.004990
0.021306
0.079592
0.032884
0.108649
0.066840
0.041159
-0.010931
-0.007148
-0.060590
0.053870
-0.154148
-0.117739
-0.217980
-0.085171
-0.081450
-0.186486
-0.070763
0.072074
0.183126
0.319232
0.670864
0.913776
1.080819
1.200895
1.151359
1.136671
0.993678
0.780023
0.513224
0.214774
0.082462
-0.167218
-0.302986
-0.163859
-0.269075
-0.303205
-0.211786
-0.153778
-0.074905
0.010933
-0.066803
-0.028761
-0.065374
0.021574
0.082492
0.108540
-0.039558
-0.017467
0.003866
0.049251
-0.000620
0.037567
0.047724
0.128001
0.153293
0.152893
0.055677
0.039118
0.237564
0.061081
0.177738
0.121964
0.218549
0.308978
0.240004
0.202658
0.263981
0.262215
0.425559
0.427340
0.392178
0.345632
0.411609
0.469483
0.344253
0.484688
0.438896
0.384337
0.377618
0.541676
0.452858
0.537078
0.435225
0.456872
0.354054
0.480202
0.336496
0.317958
0.390693
0.452575
0.323867
0.318292
0.354602
0.292578
0.248096
0.227144
0.179110
0.215931
0.095215
0.162235
0.215746
0.082165
0.063879
0.098421
0.106630
0.081224
0.130092
-0.000360
0.007030
-0.017860
-0.045157
-0.019424
0.085430
-0.071783
0.006862
-0.087571
-0.070295
0.035737
-0.078949
-0.052419
-0.063058
0.050833
-0.120282
0.000679
-0.078408
0.018105
-0.109048
0.069979
-0.043211
0.042138
-0.066714
-0.120729
-0.008363
-0.111912
-0.002384
0.000297
0.033547
-0.013854
-0.027906
-0.056195
-0.066251
0.047961
-0.079553
-0.094421
-0.008435
0.017010
-0.047040
0.018897
-0.048147
0.050639
0.019426
-0.038568
-0.089349
0.019415
0.084847
0.103458
0.007967
0.116659
0.056619
0.145653
-0.025665
0.077900
0.130952
0.187418
0.244132
0.239119
0.289081
0.237627
0.156312
0.145091
0.340728
0.180551
0.276803
0.318602
0.270301
0.249643
0.286141
0.185978
0.208584
0.269102
0.193862
0.252497
0.221780
0.201738
0.105103
-0.025236
0.016754
0.112619
-0.042873
0.084123
0.032734
-0.086748
0.078034
-0.083543
-0.023872
-0.137817
-0.038765
-0.086064
-0.159980
-0.042707
-0.100477
-0.159329
-0.250999
-0.295611
-0.257060
-0.061004
0.036050
0.194210
0.418663
0.695652
0.912148
0.947810
1.112922
1.012713
1.058366
0.865476
0.626438
0.329182
0.118728
-0.122391
-0.173760
-0.348639
-0.405467
-0.248178
-0.186560
-0.204420
-0.273564
-0.073466
-0.021115
-0.163547
0.020533
0.022575
-0.100178
-0.063881
-0.118731
0.055977
-0.095550
-0.023235
-0.034307
0.014949
0.005259
-0.069527
0.013432
0.025224
0.022453
0.070544
-0.018785
0.021768
0.067350
0.058151
0.058259
0.192565
0.125060
0.201305
0.127824
0.316343
0.219508
0.292474
0.376925
0.308046
0.224119
0.299566
0.263281
0.416215
0.349450
0.303160
0.424802
0.418905
0.343270
0.384603
0.430186
0.369171
0.444025
0.327503
0.394512
0.242673
0.213523
0.310470
0.345498
0.269728
0.323341
0.178718
0.152599
0.215231
0.075797
0.224106
0.058874
0.014801
0.115168
-0.018852
0.090636
0.067900
-0.082105
0.083646
0.009469
-0.078994
-0.092328
-0.053879
-0.048642
-0.131835
-0.058123
-0.095618
-0.161568
-0.158996
-0.150598
-0.137445
-0.041628
-0.133817
-0.084598
-0.073774
-0.130707
0.001801
-0.054316
-0.075719
-0.125775
-0.157684
-0.152110
-0.183752
-0.039007
-0.160575
-0.154748
-0.181479
-0.037304
-0.151649
-0.148631
-0.048034
-0.051102
-0.147621
-0.113317
-0.075516
-0.093672
-0.000912
-0.013453
-0.046352
-0.171940
-0.125758
-0.151073
-0.164107
-0.126214
0.019536
-0.086812
-0.128886
-0.015070
0.039286
-0.046401
0.054468
0.059429
-0.008995
-0.025967
0.047701
-0.006011
0.026393
0.138434
0.046535
0.057014
0.212753
0.057846
0.233620
0.176677
0.172358
0.181924
0.161734
0.194284
0.153475
0.143403
0.235896
0.153531
0.159289
0.150751
0.034736
0.056712
0.072000
0.009967
0.035467
-0.101213
-0.017404
-0.027390
0.039254
0.028849
-0.084482
-0.116987
-0.181428
-0.119912
-0.098920
-0.194540
-0.193417
-0.123882
-0.096362
-0.148122
-0.277965
-0.360345
-0.318857
-0.203311
-0.149525
-0.083227
0.099701
0.356197
0.632279
0.826048
0.882075
0.997549
0.987717
0.884277
0.821670
0.554360
0.261019
0.027173
-0.242594
-0.295140
-0.406313
-0.414883
-0.444963
-0.296036
-0.330610
-0.211219
-0.164363
-0.156014
-0.122211
-0.064914
-0.021882
-0.009654
-0.194222
-0.184842
0.003409
-0.107667
-0.059766
-0.054978
-0.080421
-0.048833
-0.071608
0.032103
-0.009053
-0.088745
0.044182
-0.067732
-0.016451
-0.033858
0.042811
0.111524
0.189054
0.069763
0.101789
0.182446
0.220454
0.157572
0.157133
0.244518
0.212827
0.264234
0.198433
0.392709
0.241737
0.333907
0.394450
0.309563
0.372411
0.265510
0.257535
0.261460
0.411119
0.395144
0.286527
0.355271
0.366142
0.192854
0.295716
0.308847
0.145386
0.122787
0.202551
0.190635
0.054676
0.210694
0.021316
-0.020668
0.085181
0.110803
0.012004
0.081005
0.054493
-0.088232
-0.114126
-0.058232
0.026724
-0.039873
-0.172255
0.012856
-0.078584
-0.035733
-0.140703
-0.185636
-0.200060
-0.038989
-0.201896
-0.118155
-0.186171
-0.202618
-0.204131
-0.169213
-0.101087
-0.162636
-0.170654
-0.175141
-0.152002
-0.026374
-0.140380
-0.205931
-0.154045
-0.041978
-0.116426
-0.107811
-0.166715
-0.024063
-0.174950
-0.150084
-0.205757
-0.118560
-0.128139
-0.005809
-0.150736
-0.161214
-0.182230
-0.172064
-0.012391
-0.034543
-0.020034
-0.019149
-0.143363
-0.046618
-0.119029
-0.018961
0.000609
0.002082
-0.024044
-0.105469
0.063811
-0.020465
-0.062311
-0.054875
0.064089
-0.001851
0.015488
0.088057
0.231082
0.120848
0.248834
0.175344
0.145293
0.150733
0.135437
0.215228
0.137746
0.110691
0.139610
0.111336
0.169235
0.124856
0.194990
0.074992
0.090266
-0.036886
-0.066320
-0.062563
-0.076070
-0.025286
-0.051361
0.011305
-0.035835
-0.117433
0.009685
0.008787
-0.053576
-0.115229
-0.019024
-0.105798
-0.086039
-0.251779
-0.136782
-0.311420
-0.325841
-0.277030
-0.205925
-0.156691
0.011846
0.232581
0.545474
0.799716
0.887052
1.027599
